Lead 1,Lead 2,Lead 3,Lead 4,Lead 5,Lead 6,Lead 7,Lead 8
-129.0,-129.0,-129.0,-129.0,-129.0,-129.0,-129.0,-129.0
109.0,174.0,227.0,11936.0,182.0,0.0,0.0,0.0
356.0,-26.0,193.0,-26.0,174.0,0.0,11981.0,182.0
354.0,-25.0,194.0,-25.0,175.0,0.0,11701.0,183.0
354.0,-24.0,194.0,-24.0,173.0,0.0,11331.0,183.0
355.0,-25.0,192.0,-25.0,172.0,0.0,11352.0,181.0
355.0,-26.0,192.0,-26.0,173.0,0.0,11276.0,181.0
354.0,-26.0,192.0,-26.0,173.0,0.0,11156.0,181.0
355.0,-26.0,191.0,-27.0,173.0,0.0,11091.0,180.0
355.0,-27.0,190.0,-28.0,173.0,0.0,11214.0,179.0
354.0,-26.0,191.0,-26.0,174.0,0.0,10920.0,181.0
354.0,-26.0,191.0,-26.0,173.0,0.0,10608.0,181.0
354.0,-26.0,192.0,-26.0,173.0,0.0,10427.0,181.0
353.0,-25.0,192.0,-25.0,174.0,0.0,10221.0,182.0
352.0,-24.0,193.0,-24.0,172.0,0.0,9843.0,182.0
352.0,-25.0,192.0,-25.0,171.0,0.0,9872.0,180.0
352.0,-25.0,191.0,-25.0,172.0,0.0,9807.0,180.0
352.0,-25.0,191.0,-26.0,172.0,0.0,9637.0,179.0
352.0,-26.0,190.0,-27.0,171.0,0.0,9608.0,179.0
353.0,-27.0,189.0,-28.0,172.0,0.0,9767.0,178.0
352.0,-26.0,191.0,-26.0,174.0,0.0,9497.0,180.0
352.0,-26.0,191.0,-26.0,173.0,0.0,9337.0,180.0
351.0,-26.0,191.0,-25.0,172.0,0.0,9329.0,180.0
351.0,-25.0,191.0,-25.0,172.0,0.0,9180.0,181.0
350.0,-24.0,192.0,-24.0,171.0,0.0,8848.0,181.0
350.0,-25.0,190.0,-25.0,170.0,0.0,8931.0,179.0
350.0,-25.0,190.0,-25.0,171.0,0.0,8923.0,179.0
350.0,-25.0,190.0,-26.0,170.0,0.0,8808.0,179.0
350.0,-26.0,189.0,-26.0,170.0,0.0,8746.0,178.0
351.0,-27.0,188.0,-27.0,171.0,0.0,8853.0,177.0
350.0,-26.0,189.0,-26.0,172.0,0.0,8541.0,179.0
350.0,-26.0,189.0,-25.0,171.0,0.0,8298.0,178.0
349.0,-26.0,189.0,-25.0,171.0,0.0,8213.0,179.0
348.0,-25.0,190.0,-24.0,172.0,0.0,7973.0,180.0
347.0,-24.0,191.0,-23.0,171.0,0.0,7540.0,180.0
348.0,-24.0,189.0,-25.0,169.0,0.0,7597.0,178.0
348.0,-25.0,189.0,-25.0,170.0,0.0,7599.0,177.0
348.0,-25.0,189.0,-25.0,170.0,0.0,7622.0,177.0
348.0,-26.0,188.0,-26.0,169.0,0.0,7665.0,177.0
349.0,-27.0,186.0,-28.0,169.0,0.0,7838.0,176.0
348.0,-26.0,188.0,-26.0,171.0,0.0,7665.0,178.0
348.0,-25.0,188.0,-25.0,170.0,0.0,7453.0,177.0
347.0,-25.0,188.0,-25.0,170.0,0.0,7369.0,178.0
347.0,-25.0,189.0,-24.0,170.0,0.0,7162.0,178.0
345.0,-23.0,190.0,-23.0,169.0,0.0,6806.0,178.0
345.0,-24.0,188.0,-24.0,168.0,0.0,6855.0,176.0
346.0,-25.0,188.0,-25.0,169.0,0.0,6874.0,176.0
346.0,-25.0,187.0,-25.0,169.0,0.0,6797.0,176.0
346.0,-25.0,187.0,-26.0,168.0,0.0,6776.0,176.0
347.0,-27.0,185.0,-27.0,169.0,0.0,6884.0,175.0
346.0,-26.0,187.0,-26.0,170.0,0.0,6707.0,177.0
345.0,-25.0,187.0,-25.0,169.0,0.0,6551.0,177.0
345.0,-25.0,187.0,-25.0,169.0,0.0,6482.0,176.0
344.0,-25.0,187.0,-24.0,169.0,0.0,6367.0,177.0
343.0,-23.0,189.0,-23.0,169.0,0.0,6043.0,178.0
344.0,-24.0,187.0,-25.0,166.0,0.0,6033.0,175.0
344.0,-25.0,187.0,-25.0,168.0,0.0,5973.0,176.0
344.0,-25.0,186.0,-25.0,168.0,0.0,5859.0,175.0
344.0,-25.0,185.0,-26.0,167.0,0.0,5943.0,175.0
344.0,-26.0,184.0,-27.0,168.0,0.0,6148.0,174.0
344.0,-26.0,185.0,-25.0,169.0,0.0,5957.0,176.0
343.0,-25.0,186.0,-25.0,168.0,0.0,5704.0,176.0
342.0,-25.0,186.0,-25.0,168.0,0.0,5628.0,176.0
342.0,-25.0,186.0,-24.0,168.0,0.0,5508.0,176.0
341.0,-23.0,187.0,-23.0,168.0,0.0,5112.0,176.0
341.0,-24.0,186.0,-24.0,165.0,0.0,5078.0,174.0
341.0,-24.0,186.0,-24.0,167.0,0.0,5147.0,174.0
341.0,-25.0,185.0,-25.0,167.0,0.0,5101.0,174.0
342.0,-25.0,184.0,-25.0,166.0,0.0,5028.0,173.0
343.0,-26.0,183.0,-27.0,166.0,0.0,5145.0,172.0
342.0,-25.0,184.0,-25.0,168.0,0.0,5007.0,175.0
341.0,-25.0,184.0,-25.0,167.0,0.0,4869.0,175.0
341.0,-25.0,185.0,-25.0,167.0,0.0,4871.0,175.0
340.0,-24.0,185.0,-24.0,167.0,0.0,4721.0,175.0
339.0,-23.0,186.0,-22.0,166.0,0.0,4337.0,176.0
339.0,-24.0,185.0,-24.0,165.0,0.0,4413.0,174.0
339.0,-24.0,185.0,-24.0,166.0,0.0,4481.0,173.0
339.0,-25.0,184.0,-25.0,165.0,0.0,4381.0,173.0
339.0,-25.0,183.0,-25.0,165.0,0.0,4391.0,172.0
340.0,-26.0,182.0,-27.0,165.0,0.0,4636.0,171.0
339.0,-25.0,183.0,-25.0,167.0,0.0,4587.0,173.0
339.0,-25.0,183.0,-25.0,166.0,0.0,4459.0,173.0
338.0,-25.0,183.0,-24.0,166.0,0.0,4529.0,173.0
338.0,-24.0,184.0,-23.0,166.0,0.0,4502.0,174.0
336.0,-23.0,185.0,-22.0,166.0,0.0,4188.0,174.0
336.0,-23.0,183.0,-24.0,164.0,0.0,4300.0,172.0
337.0,-24.0,183.0,-24.0,164.0,0.0,4445.0,172.0
337.0,-24.0,183.0,-24.0,165.0,0.0,4301.0,172.0
337.0,-25.0,182.0,-25.0,164.0,0.0,4163.0,171.0
338.0,-26.0,180.0,-27.0,164.0,0.0,4328.0,170.0
338.0,-25.0,182.0,-25.0,166.0,0.0,4252.0,172.0
337.0,-25.0,182.0,-24.0,165.0,0.0,4092.0,173.0
336.0,-25.0,182.0,-24.0,164.0,0.0,4062.0,172.0
336.0,-24.0,183.0,-24.0,165.0,0.0,3955.0,173.0
334.0,-23.0,184.0,-22.0,165.0,0.0,3635.0,174.0
335.0,-24.0,182.0,-23.0,162.0,0.0,3624.0,171.0
335.0,-24.0,182.0,-24.0,164.0,0.0,3729.0,171.0
335.0,-24.0,182.0,-24.0,163.0,0.0,3685.0,170.0
335.0,-24.0,181.0,-25.0,163.0,0.0,3675.0,170.0
336.0,-26.0,179.0,-27.0,163.0,0.0,3846.0,169.0
335.0,-25.0,181.0,-25.0,165.0,0.0,3746.0,171.0
335.0,-25.0,181.0,-24.0,164.0,0.0,3482.0,171.0
334.0,-24.0,181.0,-24.0,163.0,0.0,3423.0,171.0
334.0,-24.0,181.0,-24.0,163.0,0.0,3328.0,172.0
332.0,-23.0,183.0,-22.0,164.0,0.0,3030.0,172.0
332.0,-23.0,181.0,-24.0,162.0,0.0,3050.0,170.0
333.0,-24.0,181.0,-24.0,162.0,0.0,3226.0,170.0
334.0,-23.0,183.0,-23.0,163.0,0.0,3231.0,171.0
337.0,-21.0,187.0,-23.0,165.0,0.0,3258.0,174.0
339.0,-22.0,187.0,-24.0,167.0,0.0,3513.0,174.0
340.0,-21.0,190.0,-22.0,170.0,0.0,3497.0,178.0
343.0,-21.0,194.0,-21.0,171.0,0.0,3269.0,180.0
346.0,-22.0,198.0,-20.0,173.0,0.0,3208.0,183.0
348.0,-22.0,201.0,-19.0,175.0,0.0,3155.0,186.0
349.0,-20.0,205.0,-17.0,177.0,0.0,2847.0,189.0
351.0,-21.0,207.0,-18.0,176.0,0.0,2798.0,188.0
353.0,-22.0,208.0,-18.0,178.0,0.0,2903.0,189.0
353.0,-20.0,209.0,-18.0,178.0,0.0,2896.0,190.0
353.0,-19.0,209.0,-18.0,178.0,0.0,2911.0,190.0
355.0,-22.0,208.0,-20.0,179.0,0.0,3070.0,190.0
356.0,-22.0,210.0,-18.0,182.0,0.0,3061.0,192.0
355.0,-22.0,211.0,-18.0,181.0,0.0,3021.0,192.0
355.0,-21.0,210.0,-18.0,180.0,0.0,3112.0,192.0
355.0,-21.0,211.0,-17.0,181.0,0.0,3131.0,193.0
353.0,-21.0,212.0,-15.0,180.0,0.0,3009.0,193.0
353.0,-24.0,208.0,-17.0,178.0,0.0,3154.0,190.0
353.0,-25.0,207.0,-18.0,178.0,0.0,3453.0,190.0
353.0,-25.0,207.0,-19.0,179.0,-536.0,3498.0,190.0
353.0,-26.0,206.0,-19.0,177.0,-1348.0,3526.0,189.0
352.0,-25.0,203.0,-21.0,176.0,-2152.0,3762.0,187.0
351.0,-24.0,204.0,-20.0,178.0,-2943.0,3837.0,188.0
350.0,-24.0,205.0,-19.0,177.0,-3724.0,3594.0,188.0
349.0,-23.0,204.0,-19.0,176.0,-4497.0,3519.0,187.0
347.0,-24.0,201.0,-19.0,175.0,-5261.0,3470.0,186.0
345.0,-23.0,202.0,-17.0,176.0,-6013.0,3139.0,186.0
345.0,-24.0,200.0,-19.0,172.0,-6759.0,2997.0,184.0
343.0,-26.0,196.0,-20.0,171.0,-7496.0,3057.0,181.0
342.0,-25.0,195.0,-21.0,171.0,-8223.0,2964.0,180.0
340.0,-24.0,193.0,-21.0,169.0,-8940.0,2999.0,179.0
340.0,-26.0,190.0,-23.0,168.0,-9650.0,3273.0,176.0
338.0,-27.0,188.0,-23.0,168.0,-10349.0,3299.0,176.0
336.0,-25.0,188.0,-22.0,167.0,-11038.0,3047.0,176.0
334.0,-23.0,186.0,-22.0,165.0,-11720.0,2965.0,174.0
332.0,-24.0,185.0,-21.0,165.0,-12393.0,2861.0,174.0
328.0,-22.0,184.0,-20.0,163.0,-13058.0,2494.0,172.0
326.0,-21.0,181.0,-22.0,160.0,-13717.0,2414.0,169.0
325.0,-22.0,178.0,-23.0,159.0,-14366.0,2573.0,167.0
324.0,-23.0,176.0,-23.0,159.0,-15007.0,2556.0,166.0
324.0,-24.0,175.0,-24.0,158.0,-15639.0,2570.0,165.0
325.0,-25.0,173.0,-26.0,157.0,-16264.0,2761.0,163.0
324.0,-25.0,174.0,-25.0,159.0,-16877.0,2801.0,165.0
324.0,-24.0,175.0,-24.0,159.0,-17485.0,2617.0,166.0
323.0,-24.0,175.0,-24.0,158.0,-18085.0,2594.0,166.0
323.0,-23.0,175.0,-23.0,158.0,-18677.0,2574.0,166.0
321.0,-22.0,177.0,-22.0,159.0,-19261.0,2375.0,167.0
322.0,-22.0,175.0,-23.0,156.0,-19840.0,2351.0,165.0
322.0,-23.0,175.0,-23.0,157.0,-20411.0,2570.0,164.0
321.0,-23.0,174.0,-23.0,157.0,-20975.0,2567.0,164.0
322.0,-23.0,174.0,-24.0,157.0,-21532.0,2519.0,164.0
323.0,-25.0,172.0,-26.0,156.0,-22082.0,2638.0,162.0
322.0,-25.0,173.0,-25.0,158.0,-22624.0,2641.0,164.0
322.0,-24.0,174.0,-24.0,158.0,-23160.0,2370.0,164.0
322.0,-24.0,174.0,-23.0,157.0,-23689.0,2308.0,164.0
321.0,-24.0,174.0,-23.0,157.0,-24211.0,2234.0,165.0
319.0,-22.0,176.0,-21.0,158.0,-24726.0,1961.0,166.0
319.0,-22.0,175.0,-23.0,155.0,-25237.0,1949.0,164.0
320.0,-23.0,174.0,-23.0,156.0,-25740.0,2115.0,163.0
320.0,-23.0,173.0,-23.0,156.0,-26237.0,2107.0,163.0
320.0,-23.0,173.0,-24.0,156.0,-26728.0,2253.0,163.0
321.0,-25.0,171.0,-25.0,155.0,-27214.0,2755.0,161.0
321.0,-25.0,172.0,-25.0,157.0,-27692.0,3098.0,163.0
320.0,-24.0,173.0,-24.0,157.0,-28164.0,3037.0,164.0
319.0,-24.0,172.0,-23.0,156.0,-28631.0,3120.0,163.0
319.0,-23.0,173.0,-23.0,156.0,-29091.0,3137.0,164.0
317.0,-22.0,175.0,-21.0,157.0,-29545.0,2857.0,165.0
317.0,-22.0,173.0,-22.0,154.0,-29995.0,2707.0,163.0
318.0,-23.0,172.0,-23.0,155.0,-30440.0,2939.0,162.0
318.0,-23.0,172.0,-23.0,155.0,-30878.0,2980.0,162.0
317.0,-23.0,171.0,-23.0,154.0,-31311.0,3065.0,161.0
318.0,-24.0,170.0,-25.0,154.0,-31740.0,3308.0,160.0
319.0,-24.0,171.0,-25.0,156.0,-32161.0,3430.0,162.0
318.0,-24.0,172.0,-24.0,155.0,-32577.0,3270.0,163.0
317.0,-23.0,171.0,-23.0,155.0,32547.0,3343.0,162.0
315.0,-23.0,175.0,-22.0,153.0,32138.0,3411.0,160.0
308.0,-24.0,185.0,-19.0,150.0,31730.0,3186.0,156.0
303.0,-28.0,191.0,-17.0,144.0,31325.0,2984.0,149.0
298.0,-30.0,197.0,-17.0,140.0,30926.0,3103.0,143.0
294.0,-29.0,201.0,-16.0,138.0,30536.0,3047.0,140.0
296.0,-22.0,195.0,-19.0,139.0,30160.0,2964.0,143.0
303.0,-15.0,181.0,-24.0,144.0,29794.0,3126.0,149.0
314.0,-1.0,160.0,-29.0,155.0,29444.0,3288.0,164.0
332.0,25.0,125.0,-38.0,170.0,29113.0,3108.0,187.0
354.0,49.0,84.0,-49.0,189.0,28789.0,3166.0,213.0
380.0,72.0,42.0,-60.0,209.0,28471.0,3257.0,240.0
404.0,95.0,1.0,-69.0,230.0,28158.0,2898.0,269.0
429.0,117.0,-41.0,-81.0,247.0,27847.0,2383.0,295.0
455.0,137.0,-84.0,-93.0,268.0,27540.0,2386.0,321.0
482.0,156.0,-126.0,-103.0,289.0,27237.0,2339.0,348.0
508.0,170.0,-164.0,-113.0,308.0,26934.0,2319.0,374.0
533.0,172.0,-198.0,-121.0,326.0,26628.0,2478.0,396.0
555.0,171.0,-222.0,-126.0,343.0,26320.0,2554.0,416.0
569.0,175.0,-241.0,-129.0,354.0,26013.0,2231.0,431.0
578.0,178.0,-255.0,-132.0,361.0,25701.0,2121.0,440.0
584.0,172.0,-258.0,-132.0,364.0,25384.0,2160.0,444.0
585.0,162.0,-253.0,-128.0,366.0,25065.0,2068.0,444.0
580.0,153.0,-245.0,-125.0,360.0,24742.0,2006.0,437.0
572.0,144.0,-230.0,-122.0,353.0,24418.0,2282.0,426.0
560.0,133.0,-211.0,-117.0,344.0,24094.0,2334.0,413.0
546.0,119.0,-187.0,-111.0,333.0,23769.0,2413.0,398.0
529.0,99.0,-157.0,-104.0,318.0,23440.0,2456.0,376.0
507.0,77.0,-118.0,-93.0,302.0,23111.0,2433.0,353.0
481.0,57.0,-76.0,-82.0,282.0,22783.0,2096.0,327.0
455.0,32.0,-32.0,-69.0,260.0,22455.0,1989.0,298.0
429.0,4.0,14.0,-57.0,240.0,22130.0,2023.0,270.0
402.0,-16.0,57.0,-44.0,220.0,21814.0,1903.0,243.0
375.0,-34.0,97.0,-34.0,198.0,21501.0,1742.0,215.0
350.0,-53.0,137.0,-25.0,177.0,21192.0,1969.0,187.0
322.0,-70.0,166.0,-22.0,156.0,20886.0,2017.0,158.0
294.0,-93.0,171.0,-23.0,134.0,20579.0,2072.0,127.0
268.0,-107.0,170.0,-24.0,114.0,20283.0,2572.0,100.0
296.0,-32.0,173.0,-20.0,141.0,18886.0,2921.0,146.0
304.0,-25.0,172.0,-21.0,147.0,18662.0,3098.0,153.0
306.0,-24.0,172.0,-21.0,149.0,18432.0,3102.0,155.0
306.0,-24.0,171.0,-21.0,148.0,18201.0,3062.0,154.0
306.0,-25.0,170.0,-23.0,147.0,17973.0,3251.0,153.0
307.0,-26.0,169.0,-23.0,149.0,17749.0,3461.0,154.0
306.0,-25.0,171.0,-22.0,149.0,17528.0,3238.0,155.0
305.0,-24.0,171.0,-21.0,148.0,17309.0,3181.0,155.0
304.0,-24.0,171.0,-21.0,149.0,17093.0,3155.0,155.0
304.0,-23.0,172.0,-19.0,150.0,16880.0,2994.0,156.0
303.0,-23.0,172.0,-20.0,147.0,16669.0,2757.0,155.0
303.0,-24.0,170.0,-21.0,147.0,16460.0,2852.0,153.0
304.0,-24.0,170.0,-21.0,147.0,16255.0,2740.0,154.0
303.0,-24.0,170.0,-21.0,147.0,16051.0,2563.0,153.0
304.0,-25.0,168.0,-23.0,146.0,15849.0,2586.0,152.0
305.0,-25.0,168.0,-23.0,148.0,15652.0,2732.0,153.0
304.0,-24.0,170.0,-21.0,149.0,15458.0,2522.0,154.0
303.0,-24.0,169.0,-21.0,148.0,15265.0,2493.0,154.0
303.0,-24.0,169.0,-21.0,148.0,15074.0,2512.0,154.0
302.0,-23.0,171.0,-19.0,148.0,14887.0,2284.0,155.0
301.0,-22.0,170.0,-19.0,146.0,14701.0,1930.0,154.0
301.0,-23.0,169.0,-21.0,146.0,14516.0,2055.0,153.0
302.0,-24.0,169.0,-21.0,147.0,14335.0,2136.0,152.0
302.0,-24.0,169.0,-21.0,146.0,14156.0,2217.0,152.0
302.0,-25.0,167.0,-23.0,146.0,13978.0,2295.0,151.0
303.0,-25.0,167.0,-23.0,147.0,13803.0,2407.0,152.0
302.0,-24.0,168.0,-21.0,147.0,13633.0,2121.0,153.0
301.0,-24.0,168.0,-21.0,147.0,13462.0,2118.0,153.0
301.0,-24.0,168.0,-21.0,146.0,13294.0,2208.0,153.0
300.0,-23.0,170.0,-19.0,147.0,13129.0,2042.0,154.0
299.0,-22.0,170.0,-19.0,145.0,12965.0,1822.0,153.0
300.0,-23.0,168.0,-21.0,145.0,12802.0,2006.0,152.0
300.0,-24.0,168.0,-21.0,146.0,12642.0,2026.0,152.0
300.0,-23.0,168.0,-21.0,145.0,12484.0,2010.0,151.0
300.0,-24.0,166.0,-23.0,145.0,12327.0,2110.0,150.0
301.0,-25.0,166.0,-23.0,146.0,12173.0,2436.0,150.0
300.0,-24.0,167.0,-21.0,147.0,12022.0,2292.0,152.0
299.0,-24.0,167.0,-21.0,146.0,11872.0,2209.0,152.0
299.0,-24.0,167.0,-20.0,146.0,11724.0,2188.0,152.0
298.0,-23.0,169.0,-19.0,146.0,11579.0,2074.0,153.0
297.0,-22.0,168.0,-19.0,144.0,11434.0,1833.0,152.0
298.0,-23.0,168.0,-20.0,144.0,11291.0,1999.0,151.0
300.0,-22.0,171.0,-20.0,146.0,11153.0,2092.0,153.0
301.0,-22.0,171.0,-20.0,147.0,11014.0,2159.0,153.0
302.0,-22.0,171.0,-21.0,147.0,10877.0,2288.0,153.0
304.0,-22.0,173.0,-21.0,149.0,10743.0,2461.0,155.0
304.0,-21.0,175.0,-19.0,151.0,10612.0,2249.0,157.0
305.0,-22.0,177.0,-19.0,151.0,10480.0,2141.0,158.0
305.0,-23.0,177.0,-19.0,152.0,10349.0,2150.0,159.0
304.0,-22.0,178.0,-17.0,152.0,10221.0,2035.0,160.0
304.0,-21.0,180.0,-16.0,151.0,10095.0,1803.0,160.0
306.0,-21.0,180.0,-17.0,151.0,9970.0,1989.0,160.0
307.0,-20.0,181.0,-17.0,152.0,9846.0,2058.0,160.0
307.0,-21.0,181.0,-17.0,152.0,9723.0,2044.0,161.0
309.0,-23.0,180.0,-18.0,152.0,9602.0,2110.0,160.0
310.0,-25.0,180.0,-19.0,154.0,9483.0,2316.0,161.0
310.0,-22.0,183.0,-17.0,155.0,9367.0,2148.0,163.0
310.0,-20.0,184.0,-17.0,155.0,9251.0,2082.0,163.0
310.0,-20.0,185.0,-16.0,155.0,9136.0,2130.0,164.0
310.0,-20.0,187.0,-15.0,157.0,9024.0,2082.0,166.0
310.0,-20.0,188.0,-14.0,156.0,8912.0,1913.0,166.0
311.0,-20.0,189.0,-15.0,156.0,8801.0,2117.0,166.0
315.0,-18.0,193.0,-14.0,159.0,8696.0,2199.0,168.0
318.0,-17.0,197.0,-14.0,161.0,8591.0,2246.0,171.0
321.0,-16.0,200.0,-14.0,163.0,8487.0,2393.0,173.0
323.0,-16.0,201.0,-14.0,165.0,8383.0,2645.0,175.0
324.0,-13.0,205.0,-12.0,166.0,8282.0,2466.0,178.0
326.0,-11.0,210.0,-10.0,168.0,8183.0,2336.0,181.0
328.0,-9.0,214.0,-9.0,170.0,8085.0,2369.0,184.0
330.0,-7.0,220.0,-7.0,172.0,7989.0,2238.0,187.0
331.0,-4.0,224.0,-5.0,173.0,7894.0,1957.0,189.0
335.0,-6.0,225.0,-6.0,174.0,7797.0,2079.0,190.0
339.0,-6.0,229.0,-5.0,178.0,7704.0,2077.0,193.0
342.0,-4.0,233.0,-4.0,179.0,7611.0,1999.0,196.0
344.0,-3.0,236.0,-4.0,181.0,7520.0,2081.0,198.0
348.0,-2.0,240.0,-4.0,184.0,7430.0,2395.0,200.0
350.0,0.0,246.0,-1.0,187.0,7342.0,2316.0,205.0
352.0,0.0,249.0,0.0,188.0,7254.0,2284.0,207.0
354.0,0.0,252.0,0.0,190.0,7166.0,2341.0,210.0
355.0,1.0,255.0,1.0,191.0,7079.0,2229.0,211.0
356.0,3.0,258.0,2.0,192.0,6994.0,1856.0,213.0
357.0,2.0,257.0,1.0,191.0,6907.0,1938.0,212.0
359.0,0.0,258.0,1.0,193.0,6822.0,1991.0,213.0
360.0,0.0,258.0,1.0,193.0,6737.0,1965.0,213.0
360.0,0.0,258.0,0.0,193.0,6653.0,2047.0,213.0
363.0,0.0,259.0,0.0,195.0,6571.0,2316.0,214.0
363.0,0.0,262.0,1.0,197.0,6492.0,2204.0,216.0
362.0,0.0,262.0,2.0,196.0,6410.0,2173.0,216.0
361.0,0.0,261.0,2.0,195.0,6330.0,2237.0,216.0
358.0,0.0,259.0,2.0,194.0,6249.0,2138.0,215.0
356.0,0.0,258.0,2.0,193.0,6170.0,1872.0,214.0
356.0,-2.0,255.0,0.0,191.0,6090.0,2038.0,211.0
355.0,-3.0,252.0,0.0,190.0,6012.0,2159.0,209.0
354.0,-5.0,250.0,0.0,189.0,5934.0,2133.0,207.0
352.0,-5.0,246.0,-2.0,187.0,5857.0,2133.0,205.0
352.0,-9.0,243.0,-4.0,187.0,5781.0,2361.0,203.0
349.0,-8.0,242.0,-3.0,187.0,5708.0,2228.0,203.0
347.0,-11.0,239.0,-4.0,185.0,5634.0,2087.0,201.0
344.0,-11.0,235.0,-4.0,183.0,5560.0,2064.0,199.0
341.0,-10.0,233.0,-3.0,181.0,5489.0,2036.0,197.0
338.0,-11.0,231.0,-3.0,179.0,5417.0,1722.0,195.0
337.0,-15.0,226.0,-6.0,176.0,5345.0,1655.0,191.0
334.0,-18.0,220.0,-7.0,175.0,5273.0,1727.0,189.0
333.0,-21.0,217.0,-9.0,173.0,5204.0,1833.0,186.0
332.0,-25.0,212.0,-11.0,171.0,5136.0,1924.0,184.0
330.0,-28.0,207.0,-13.0,170.0,5066.0,2199.0,180.0
326.0,-27.0,205.0,-12.0,169.0,5001.0,2099.0,179.0
322.0,-24.0,203.0,-12.0,166.0,4937.0,1928.0,177.0
319.0,-23.0,200.0,-12.0,164.0,4872.0,1884.0,175.0
317.0,-24.0,199.0,-12.0,164.0,4810.0,1829.0,174.0
314.0,-23.0,197.0,-11.0,162.0,4748.0,1565.0,173.0
313.0,-25.0,194.0,-14.0,159.0,4685.0,1653.0,169.0
312.0,-24.0,192.0,-14.0,158.0,4626.0,1728.0,168.0
309.0,-24.0,188.0,-14.0,156.0,4565.0,1719.0,166.0
308.0,-25.0,186.0,-16.0,155.0,4505.0,1850.0,164.0
308.0,-25.0,183.0,-17.0,154.0,4447.0,2193.0,162.0
306.0,-25.0,182.0,-16.0,154.0,4390.0,2135.0,163.0
303.0,-25.0,180.0,-16.0,152.0,4334.0,2006.0,161.0
302.0,-24.0,179.0,-16.0,151.0,4279.0,2031.0,159.0
299.0,-22.0,178.0,-15.0,151.0,4225.0,1986.0,159.0
297.0,-22.0,177.0,-15.0,149.0,4171.0,1657.0,158.0
296.0,-23.0,174.0,-16.0,146.0,4115.0,1681.0,154.0
296.0,-23.0,173.0,-17.0,147.0,4063.0,1780.0,154.0
295.0,-26.0,171.0,-18.0,146.0,4010.0,1829.0,153.0
293.0,-26.0,168.0,-19.0,144.0,3958.0,2034.0,150.0
293.0,-26.0,166.0,-20.0,144.0,3906.0,2366.0,149.0
290.0,-24.0,165.0,-19.0,144.0,3857.0,2322.0,150.0
287.0,-23.0,162.0,-19.0,141.0,3807.0,2214.0,147.0
286.0,-23.0,161.0,-19.0,140.0,3758.0,2211.0,146.0
283.0,-21.0,161.0,-18.0,139.0,3711.0,2129.0,145.0
281.0,-19.0,162.0,-17.0,138.0,3665.0,1867.0,145.0
282.0,-20.0,160.0,-19.0,137.0,3617.0,1964.0,143.0
282.0,-20.0,159.0,-19.0,137.0,3571.0,2091.0,143.0
280.0,-22.0,156.0,-20.0,136.0,3524.0,2110.0,141.0
280.0,-23.0,154.0,-21.0,135.0,3478.0,2190.0,139.0
281.0,-24.0,153.0,-22.0,135.0,3434.0,2241.0,139.0
280.0,-24.0,154.0,-21.0,136.0,3392.0,1698.0,141.0
279.0,-23.0,155.0,-20.0,136.0,3350.0,1294.0,141.0
279.0,-23.0,154.0,-20.0,135.0,3309.0,1180.0,141.0
279.0,-22.0,155.0,-19.0,136.0,3268.0,1057.0,141.0
277.0,-22.0,156.0,-18.0,135.0,3228.0,800.0,142.0
278.0,-22.0,155.0,-19.0,133.0,3186.0,871.0,140.0
278.0,-22.0,154.0,-20.0,134.0,3146.0,968.0,139.0
278.0,-22.0,154.0,-20.0,134.0,3106.0,943.0,139.0
278.0,-23.0,153.0,-21.0,134.0,3067.0,998.0,139.0
279.0,-24.0,152.0,-23.0,134.0,3028.0,1289.0,138.0
278.0,-24.0,153.0,-21.0,135.0,2992.0,1264.0,140.0
277.0,-23.0,154.0,-20.0,135.0,2955.0,1132.0,140.0
277.0,-23.0,153.0,-20.0,135.0,2918.0,1143.0,140.0
276.0,-22.0,154.0,-19.0,134.0,2882.0,1111.0,140.0
275.0,-21.0,155.0,-17.0,135.0,2847.0,857.0,141.0
275.0,-22.0,154.0,-19.0,132.0,2810.0,903.0,139.0
276.0,-22.0,153.0,-19.0,133.0,2774.0,1031.0,138.0
276.0,-23.0,153.0,-20.0,133.0,2740.0,1046.0,138.0
276.0,-23.0,153.0,-21.0,132.0,2705.0,1122.0,138.0
277.0,-24.0,151.0,-22.0,133.0,2670.0,1371.0,137.0
277.0,-23.0,152.0,-20.0,135.0,2639.0,1323.0,139.0
276.0,-23.0,152.0,-20.0,134.0,2606.0,1149.0,139.0
276.0,-23.0,152.0,-20.0,133.0,2573.0,1170.0,139.0
275.0,-22.0,153.0,-19.0,134.0,2542.0,1151.0,140.0
274.0,-21.0,154.0,-18.0,134.0,2511.0,892.0,140.0
274.0,-21.0,153.0,-19.0,131.0,2478.0,997.0,138.0
274.0,-22.0,152.0,-19.0,132.0,2447.0,1202.0,138.0
274.0,-22.0,152.0,-20.0,132.0,2416.0,1170.0,138.0
275.0,-22.0,151.0,-20.0,132.0,2386.0,1201.0,137.0
275.0,-24.0,149.0,-22.0,132.0,2355.0,1462.0,136.0
275.0,-24.0,151.0,-21.0,134.0,2327.0,1395.0,138.0
274.0,-23.0,151.0,-20.0,133.0,2298.0,1094.0,138.0
273.0,-22.0,151.0,-20.0,133.0,2269.0,1038.0,138.0
273.0,-22.0,152.0,-19.0,133.0,2241.0,1031.0,138.0
272.0,-21.0,153.0,-18.0,132.0,2214.0,866.0,139.0
272.0,-21.0,152.0,-19.0,131.0,2185.0,967.0,137.0
273.0,-22.0,151.0,-20.0,132.0,2157.0,1201.0,136.0
272.0,-22.0,151.0,-20.0,132.0,2131.0,1246.0,137.0
273.0,-22.0,150.0,-21.0,131.0,2104.0,1288.0,136.0
273.0,-23.0,149.0,-22.0,131.0,2076.0,1520.0,135.0
273.0,-23.0,150.0,-20.0,133.0,2078.0,1497.0,137.0
272.0,-23.0,150.0,-20.0,132.0,2077.0,1319.0,137.0
272.0,-22.0,150.0,-20.0,132.0,2075.0,1270.0,137.0
272.0,-22.0,151.0,-19.0,132.0,2075.0,1125.0,138.0
270.0,-21.0,152.0,-17.0,132.0,2074.0,752.0,138.0
270.0,-21.0,151.0,-19.0,130.0,2072.0,705.0,136.0
271.0,-21.0,150.0,-19.0,130.0,2070.0,865.0,136.0
271.0,-22.0,150.0,-20.0,131.0,2069.0,854.0,136.0
271.0,-22.0,150.0,-20.0,131.0,2067.0,879.0,135.0
272.0,-23.0,148.0,-21.0,131.0,2065.0,1137.0,134.0
271.0,-23.0,149.0,-20.0,133.0,2065.0,1174.0,136.0
271.0,-23.0,149.0,-20.0,132.0,2064.0,845.0,136.0
270.0,-23.0,150.0,-19.0,131.0,2063.0,683.0,137.0
270.0,-22.0,150.0,-19.0,131.0,2062.0,735.0,137.0
269.0,-21.0,151.0,-17.0,131.0,2061.0,578.0,138.0
269.0,-21.0,150.0,-18.0,129.0,2059.0,606.0,136.0
270.0,-22.0,150.0,-19.0,130.0,2057.0,778.0,135.0
269.0,-21.0,149.0,-19.0,130.0,2056.0,769.0,135.0
270.0,-22.0,148.0,-20.0,129.0,2054.0,811.0,135.0
270.0,-23.0,147.0,-21.0,129.0,2052.0,1112.0,133.0
270.0,-23.0,148.0,-20.0,131.0,2052.0,1194.0,135.0
269.0,-22.0,148.0,-20.0,131.0,2051.0,1012.0,136.0
269.0,-22.0,148.0,-20.0,130.0,2050.0,968.0,135.0
268.0,-22.0,149.0,-19.0,131.0,2049.0,893.0,136.0
267.0,-20.0,151.0,-17.0,130.0,2049.0,636.0,137.0
267.0,-20.0,149.0,-18.0,128.0,2046.0,583.0,135.0
267.0,-21.0,148.0,-19.0,129.0,2044.0,730.0,134.0
268.0,-22.0,149.0,-19.0,129.0,2043.0,804.0,135.0
267.0,-22.0,148.0,-20.0,129.0,2041.0,893.0,134.0
268.0,-23.0,146.0,-21.0,129.0,2039.0,1087.0,133.0
268.0,-23.0,147.0,-20.0,130.0,2039.0,1076.0,134.0
267.0,-22.0,148.0,-19.0,130.0,2038.0,867.0,135.0
267.0,-22.0,148.0,-19.0,130.0,2037.0,870.0,135.0
267.0,-22.0,148.0,-19.0,130.0,2036.0,854.0,135.0
265.0,-20.0,150.0,-17.0,130.0,2036.0,580.0,136.0
265.0,-20.0,148.0,-18.0,128.0,2033.0,460.0,134.0
265.0,-21.0,147.0,-19.0,128.0,2031.0,586.0,134.0
265.0,-21.0,147.0,-19.0,128.0,2030.0,587.0,134.0
266.0,-22.0,147.0,-20.0,128.0,2028.0,658.0,133.0
267.0,-23.0,145.0,-22.0,127.0,2026.0,868.0,131.0
267.0,-23.0,146.0,-20.0,129.0,2026.0,913.0,133.0
266.0,-22.0,147.0,-19.0,129.0,2025.0,719.0,134.0
265.0,-22.0,147.0,-19.0,129.0,2024.0,681.0,134.0
265.0,-21.0,147.0,-19.0,129.0,2023.0,667.0,134.0
263.0,-20.0,149.0,-17.0,129.0,2023.0,421.0,135.0
263.0,-20.0,147.0,-18.0,127.0,2021.0,404.0,133.0
264.0,-21.0,147.0,-19.0,127.0,2019.0,709.0,133.0
264.0,-21.0,147.0,-19.0,128.0,2018.0,758.0,133.0
264.0,-21.0,146.0,-19.0,127.0,2016.0,765.0,132.0
265.0,-22.0,144.0,-21.0,127.0,2013.0,940.0,131.0
265.0,-23.0,145.0,-20.0,129.0,2013.0,1045.0,133.0
264.0,-22.0,146.0,-19.0,128.0,2012.0,967.0,133.0
263.0,-22.0,146.0,-19.0,128.0,2011.0,1009.0,133.0
263.0,-21.0,146.0,-19.0,128.0,2010.0,995.0,133.0
262.0,-20.0,148.0,-17.0,128.0,2010.0,793.0,134.0
262.0,-20.0,147.0,-18.0,126.0,2008.0,770.0,132.0
262.0,-21.0,146.0,-19.0,126.0,2006.0,997.0,132.0
262.0,-21.0,145.0,-19.0,127.0,2005.0,984.0,132.0
262.0,-21.0,145.0,-19.0,126.0,2003.0,957.0,132.0
263.0,-22.0,143.0,-21.0,126.0,2001.0,1132.0,130.0
263.0,-22.0,144.0,-20.0,128.0,2001.0,1222.0,131.0
262.0,-22.0,144.0,-19.0,127.0,2000.0,1050.0,132.0
262.0,-22.0,145.0,-19.0,127.0,1998.0,1116.0,132.0
261.0,-21.0,145.0,-19.0,127.0,1997.0,1148.0,132.0
261.0,-20.0,147.0,-17.0,127.0,1998.0,953.0,134.0
260.0,-20.0,146.0,-18.0,125.0,1995.0,884.0,132.0
261.0,-20.0,145.0,-18.0,125.0,1993.0,1094.0,131.0
261.0,-21.0,145.0,-19.0,125.0,1992.0,1113.0,131.0
261.0,-22.0,144.0,-19.0,125.0,1991.0,1090.0,131.0
262.0,-22.0,143.0,-21.0,125.0,1988.0,1218.0,129.0
262.0,-22.0,143.0,-20.0,127.0,1988.0,1305.0,131.0
261.0,-22.0,144.0,-19.0,127.0,1987.0,1038.0,132.0
261.0,-22.0,144.0,-19.0,126.0,1986.0,968.0,131.0
260.0,-21.0,144.0,-19.0,126.0,1985.0,943.0,131.0
259.0,-20.0,146.0,-17.0,127.0,1985.0,730.0,132.0
259.0,-20.0,145.0,-17.0,124.0,1983.0,575.0,131.0
259.0,-20.0,144.0,-18.0,125.0,1981.0,802.0,130.0
259.0,-20.0,144.0,-19.0,125.0,1980.0,862.0,130.0
259.0,-21.0,143.0,-19.0,125.0,1978.0,905.0,130.0
260.0,-22.0,142.0,-21.0,124.0,1976.0,1088.0,128.0
260.0,-22.0,142.0,-20.0,126.0,1975.0,1210.0,129.0
259.0,-22.0,143.0,-19.0,125.0,1975.0,1004.0,130.0
259.0,-21.0,143.0,-19.0,125.0,1973.0,975.0,130.0
258.0,-21.0,143.0,-19.0,125.0,1973.0,958.0,130.0
257.0,-20.0,145.0,-17.0,126.0,1973.0,772.0,132.0
257.0,-20.0,145.0,-17.0,124.0,1971.0,673.0,130.0
257.0,-20.0,143.0,-18.0,124.0,1968.0,907.0,130.0
258.0,-20.0,143.0,-19.0,124.0,1967.0,937.0,129.0
258.0,-21.0,142.0,-19.0,124.0,1966.0,934.0,129.0
258.0,-22.0,141.0,-21.0,123.0,1964.0,1064.0,128.0
259.0,-23.0,141.0,-20.0,125.0,1963.0,1179.0,129.0
258.0,-22.0,142.0,-19.0,125.0,1962.0,934.0,130.0
257.0,-22.0,142.0,-19.0,125.0,1961.0,843.0,129.0
257.0,-21.0,142.0,-18.0,125.0,1960.0,838.0,129.0
256.0,-20.0,144.0,-17.0,125.0,1960.0,677.0,131.0
255.0,-20.0,143.0,-17.0,123.0,1958.0,544.0,129.0
256.0,-20.0,142.0,-18.0,123.0,1956.0,907.0,128.0
256.0,-21.0,142.0,-18.0,123.0,1955.0,1068.0,128.0
256.0,-21.0,141.0,-19.0,123.0,1954.0,1172.0,128.0
256.0,-22.0,140.0,-20.0,122.0,1951.0,1370.0,127.0
257.0,-22.0,140.0,-20.0,124.0,1951.0,1549.0,128.0
256.0,-21.0,141.0,-18.0,124.0,1951.0,1358.0,129.0
255.0,-21.0,141.0,-19.0,123.0,1949.0,1324.0,129.0
255.0,-21.0,141.0,-18.0,123.0,1948.0,1374.0,128.0
254.0,-20.0,143.0,-17.0,124.0,1948.0,1262.0,130.0
254.0,-19.0,142.0,-17.0,122.0,1946.0,1122.0,128.0
254.0,-20.0,142.0,-18.0,122.0,1945.0,1325.0,128.0
257.0,-19.0,146.0,-17.0,125.0,1947.0,1353.0,131.0
259.0,-17.0,148.0,-17.0,126.0,1949.0,1411.0,132.0
261.0,-18.0,149.0,-17.0,127.0,1949.0,1548.0,133.0
264.0,-18.0,152.0,-17.0,131.0,1951.0,1685.0,136.0
266.0,-18.0,157.0,-15.0,133.0,1955.0,1493.0,140.0
270.0,-19.0,160.0,-14.0,135.0,1957.0,1416.0,143.0
271.0,-19.0,163.0,-13.0,136.0,1958.0,1410.0,144.0
272.0,-17.0,167.0,-11.0,139.0,1962.0,1294.0,147.0
273.0,-17.0,169.0,-11.0,138.0,1961.0,1074.0,148.0
274.0,-17.0,168.0,-12.0,138.0,1960.0,1203.0,147.0
274.0,-15.0,170.0,-11.0,139.0,1960.0,1209.0,148.0
275.0,-16.0,170.0,-12.0,140.0,1960.0,1233.0,149.0
278.0,-18.0,170.0,-13.0,140.0,1958.0,1380.0,148.0
279.0,-19.0,170.0,-13.0,142.0,1957.0,1608.0,149.0
277.0,-18.0,171.0,-12.0,142.0,1957.0,1443.0,150.0
277.0,-18.0,171.0,-12.0,141.0,1956.0,1407.0,150.0
277.0,-18.0,171.0,-12.0,141.0,1955.0,1415.0,150.0
276.0,-19.0,172.0,-10.0,142.0,1954.0,1284.0,151.0
275.0,-21.0,170.0,-11.0,139.0,1951.0,1097.0,149.0
276.0,-22.0,169.0,-12.0,139.0,1949.0,1293.0,148.0
276.0,-22.0,168.0,-13.0,140.0,1948.0,1346.0,148.0
274.0,-21.0,167.0,-13.0,138.0,1945.0,1353.0,147.0
273.0,-20.0,165.0,-14.0,137.0,1942.0,1456.0,145.0
274.0,-21.0,165.0,-14.0,138.0,1941.0,1635.0,145.0
273.0,-20.0,166.0,-13.0,139.0,1941.0,1427.0,146.0
271.0,-21.0,163.0,-14.0,136.0,1937.0,1345.0,145.0
269.0,-21.0,161.0,-14.0,136.0,1934.0,1303.0,143.0
268.0,-20.0,163.0,-12.0,137.0,1934.0,1125.0,145.0
266.0,-21.0,160.0,-12.0,134.0,1931.0,863.0,142.0
265.0,-22.0,157.0,-14.0,132.0,1926.0,1048.0,139.0
264.0,-21.0,155.0,-15.0,132.0,1923.0,1122.0,138.0
263.0,-20.0,154.0,-15.0,130.0,1921.0,1117.0,137.0
261.0,-22.0,150.0,-17.0,128.0,1916.0,1230.0,134.0
261.0,-23.0,148.0,-18.0,129.0,1914.0,1468.0,133.0
258.0,-20.0,148.0,-16.0,128.0,1912.0,1316.0,134.0
257.0,-20.0,147.0,-16.0,127.0,1910.0,1275.0,132.0
255.0,-21.0,144.0,-16.0,125.0,1906.0,1257.0,131.0
251.0,-18.0,143.0,-16.0,124.0,1904.0,1093.0,130.0
249.0,-17.0,142.0,-16.0,121.0,1901.0,848.0,128.0
248.0,-19.0,138.0,-17.0,119.0,1896.0,1053.0,125.0
247.0,-20.0,137.0,-18.0,120.0,1894.0,1107.0,124.0
248.0,-20.0,137.0,-18.0,119.0,1893.0,1132.0,124.0
248.0,-21.0,136.0,-20.0,118.0,1890.0,1289.0,122.0
248.0,-21.0,135.0,-20.0,120.0,1889.0,1562.0,123.0
248.0,-20.0,136.0,-18.0,121.0,1890.0,1402.0,125.0
247.0,-20.0,136.0,-18.0,120.0,1888.0,1342.0,124.0
247.0,-20.0,136.0,-17.0,119.0,1887.0,1296.0,124.0
246.0,-19.0,137.0,-16.0,120.0,1887.0,1150.0,125.0
245.0,-19.0,138.0,-16.0,119.0,1886.0,934.0,125.0
245.0,-19.0,136.0,-18.0,118.0,1883.0,1068.0,123.0
246.0,-20.0,136.0,-18.0,118.0,1882.0,1095.0,123.0
246.0,-20.0,136.0,-18.0,118.0,1881.0,1095.0,123.0
246.0,-21.0,135.0,-19.0,118.0,1879.0,1201.0,122.0
247.0,-21.0,134.0,-20.0,119.0,1877.0,1478.0,122.0
246.0,-20.0,135.0,-18.0,120.0,1877.0,1355.0,124.0
246.0,-20.0,135.0,-18.0,119.0,1877.0,1292.0,124.0
245.0,-20.0,135.0,-18.0,119.0,1875.0,1198.0,124.0
245.0,-19.0,137.0,-17.0,119.0,1875.0,946.0,124.0
244.0,-18.0,137.0,-16.0,118.0,1874.0,717.0,124.0
244.0,-19.0,135.0,-17.0,117.0,1872.0,894.0,122.0
244.0,-19.0,135.0,-17.0,118.0,1870.0,883.0,122.0
244.0,-20.0,135.0,-18.0,117.0,1869.0,889.0,122.0
245.0,-20.0,134.0,-19.0,117.0,1867.0,1057.0,121.0
245.0,-22.0,133.0,-20.0,118.0,1866.0,1359.0,121.0
245.0,-21.0,135.0,-18.0,119.0,1866.0,1175.0,123.0
244.0,-20.0,135.0,-18.0,118.0,1865.0,1067.0,123.0
244.0,-20.0,135.0,-18.0,118.0,1864.0,1060.0,122.0
243.0,-19.0,136.0,-17.0,119.0,1863.0,920.0,123.0
242.0,-18.0,136.0,-16.0,118.0,1862.0,684.0,123.0
243.0,-19.0,135.0,-17.0,116.0,1860.0,852.0,122.0
242.0,-19.0,135.0,-17.0,117.0,1859.0,919.0,122.0
243.0,-20.0,134.0,-18.0,117.0,1857.0,890.0,122.0
243.0,-20.0,133.0,-19.0,116.0,1855.0,919.0,120.0
244.0,-21.0,132.0,-19.0,117.0,1854.0,1090.0,121.0
243.0,-20.0,133.0,-18.0,118.0,1854.0,855.0,122.0
242.0,-20.0,134.0,-17.0,117.0,1852.0,744.0,121.0
237.0,-21.0,141.0,-16.0,113.0,1845.0,738.0,117.0
231.0,-24.0,150.0,-13.0,110.0,1837.0,636.0,112.0
225.0,-25.0,157.0,-10.0,105.0,1829.0,413.0,108.0
220.0,-27.0,163.0,-11.0,100.0,1820.0,583.0,101.0
220.0,-22.0,161.0,-12.0,100.0,1820.0,679.0,101.0
224.0,-14.0,151.0,-15.0,104.0,1828.0,740.0,107.0
233.0,-5.0,134.0,-20.0,111.0,1841.0,890.0,115.0
249.0,15.0,103.0,-30.0,124.0,1870.0,1165.0,134.0
270.0,41.0,66.0,-39.0,143.0,1909.0,1000.0,161.0
294.0,64.0,24.0,-50.0,162.0,1949.0,881.0,187.0
319.0,86.0,-18.0,-60.0,182.0,1990.0,895.0,215.0
344.0,109.0,-59.0,-70.0,203.0,2031.0,777.0,244.0
369.0,131.0,-100.0,-81.0,222.0,2072.0,519.0,271.0
395.0,151.0,-144.0,-93.0,241.0,2110.0,719.0,296.0
421.0,168.0,-184.0,-103.0,262.0,2148.0,858.0,323.0
446.0,177.0,-220.0,-111.0,281.0,2182.0,917.0,347.0
471.0,176.0,-249.0,-117.0,297.0,2207.0,1060.0,367.0
490.0,175.0,-272.0,-123.0,311.0,2227.0,1343.0,383.0
501.0,180.0,-287.0,-126.0,322.0,2245.0,1219.0,397.0
508.0,180.0,-296.0,-127.0,326.0,2251.0,1125.0,402.0
512.0,169.0,-295.0,-125.0,327.0,2249.0,1121.0,403.0
510.0,160.0,-287.0,-122.0,326.0,2242.0,983.0,401.0
503.0,153.0,-273.0,-117.0,321.0,2230.0,660.0,393.0
492.0,142.0,-257.0,-114.0,310.0,2209.0,795.0,380.0
480.0,129.0,-236.0,-108.0,301.0,2187.0,935.0,366.0
464.0,113.0,-208.0,-101.0,288.0,2157.0,989.0,348.0
443.0,92.0,-173.0,-92.0,272.0,2121.0,1101.0,324.0
421.0,69.0,-135.0,-83.0,254.0,2080.0,1371.0,298.0
394.0,46.0,-90.0,-70.0,235.0,2038.0,1230.0,273.0
368.0,19.0,-44.0,-57.0,213.0,1992.0,1103.0,244.0
341.0,-5.0,0.0,-45.0,192.0,1947.0,1100.0,215.0
315.0,-23.0,41.0,-33.0,172.0,1907.0,946.0,189.0
288.0,-40.0,83.0,-22.0,152.0,1866.0,499.0,162.0
262.0,-58.0,119.0,-17.0,129.0,1823.0,553.0,132.0
234.0,-79.0,134.0,-16.0,107.0,1777.0,559.0,102.0
206.0,-100.0,135.0,-17.0,85.0,1732.0,361.0,73.0
184.0,-99.0,135.0,-17.0,70.0,1706.0,392.0,54.0
177.0,-82.0,133.0,-18.0,65.0,1703.0,572.0,49.0
181.0,-70.0,135.0,-17.0,71.0,1715.0,425.0,59.0
194.0,-57.0,135.0,-16.0,81.0,1737.0,301.0,73.0
208.0,-44.0,135.0,-16.0,92.0,1759.0,397.0,88.0
220.0,-34.0,136.0,-15.0,103.0,1779.0,465.0,102.0
228.0,-24.0,137.0,-14.0,109.0,1794.0,302.0,113.0
232.0,-20.0,135.0,-15.0,110.0,1798.0,459.0,115.0
233.0,-21.0,134.0,-16.0,111.0,1797.0,604.0,115.0
233.0,-21.0,134.0,-16.0,111.0,1796.0,603.0,115.0
233.0,-21.0,134.0,-17.0,111.0,1794.0,620.0,114.0
235.0,-23.0,132.0,-18.0,111.0,1793.0,870.0,114.0
234.0,-22.0,133.0,-16.0,113.0,1793.0,791.0,116.0
233.0,-21.0,134.0,-16.0,112.0,1792.0,676.0,116.0
232.0,-21.0,134.0,-16.0,112.0,1791.0,681.0,116.0
232.0,-21.0,134.0,-15.0,112.0,1790.0,629.0,116.0
231.0,-19.0,136.0,-14.0,112.0,1790.0,360.0,117.0
231.0,-20.0,134.0,-15.0,110.0,1787.0,481.0,115.0
231.0,-20.0,134.0,-16.0,111.0,1786.0,650.0,115.0
231.0,-20.0,133.0,-16.0,111.0,1785.0,658.0,115.0
231.0,-21.0,132.0,-17.0,110.0,1783.0,636.0,114.0
232.0,-22.0,131.0,-18.0,111.0,1781.0,699.0,113.0
232.0,-22.0,133.0,-17.0,112.0,1781.0,505.0,115.0
231.0,-21.0,133.0,-16.0,111.0,1781.0,319.0,115.0
231.0,-21.0,133.0,-16.0,111.0,1780.0,272.0,115.0
231.0,-21.0,134.0,-15.0,111.0,1779.0,225.0,115.0
229.0,-19.0,135.0,-14.0,111.0,1778.0,-45.0,116.0
229.0,-20.0,133.0,-15.0,109.0,1776.0,32.0,114.0
230.0,-20.0,133.0,-16.0,110.0,1775.0,240.0,114.0
230.0,-21.0,132.0,-16.0,110.0,1774.0,276.0,113.0
230.0,-21.0,132.0,-17.0,109.0,1772.0,290.0,113.0
231.0,-22.0,130.0,-18.0,110.0,1770.0,510.0,112.0
230.0,-22.0,132.0,-16.0,112.0,1770.0,435.0,114.0
230.0,-21.0,132.0,-16.0,111.0,1769.0,228.0,114.0
229.0,-21.0,132.0,-16.0,110.0,1768.0,200.0,114.0
229.0,-20.0,133.0,-15.0,111.0,1768.0,102.0,115.0
228.0,-19.0,135.0,-13.0,111.0,1768.0,-188.0,116.0
228.0,-19.0,132.0,-15.0,108.0,1765.0,-113.0,113.0
228.0,-20.0,132.0,-16.0,109.0,1764.0,23.0,113.0
228.0,-20.0,132.0,-16.0,109.0,1762.0,35.0,113.0
229.0,-21.0,131.0,-16.0,109.0,1761.0,53.0,112.0
230.0,-22.0,129.0,-18.0,109.0,1759.0,250.0,111.0
229.0,-21.0,131.0,-17.0,111.0,1759.0,165.0,113.0
228.0,-21.0,131.0,-16.0,110.0,1758.0,37.0,113.0
228.0,-21.0,131.0,-16.0,110.0,1757.0,136.0,113.0
227.0,-20.0,132.0,-15.0,110.0,1757.0,235.0,114.0
227.0,-19.0,134.0,-13.0,110.0,1757.0,78.0,115.0
228.0,-18.0,134.0,-15.0,109.0,1756.0,207.0,114.0
229.0,-18.0,136.0,-14.0,111.0,1757.0,514.0,115.0
230.0,-18.0,135.0,-15.0,111.0,1756.0,644.0,115.0
231.0,-17.0,137.0,-15.0,112.0,1757.0,673.0,116.0
234.0,-18.0,137.0,-16.0,113.0,1757.0,926.0,116.0
235.0,-19.0,140.0,-14.0,116.0,1758.0,984.0,120.0
235.0,-20.0,141.0,-14.0,116.0,1758.0,754.0,121.0
235.0,-20.0,141.0,-14.0,116.0,1757.0,445.0,120.0
234.0,-19.0,142.0,-13.0,116.0,1757.0,107.0,121.0
234.0,-16.0,146.0,-11.0,117.0,1759.0,-439.0,123.0
236.0,-16.0,146.0,-12.0,115.0,1758.0,-358.0,122.0
236.0,-17.0,145.0,-12.0,117.0,1757.0,-285.0,122.0
237.0,-18.0,145.0,-12.0,117.0,1756.0,-409.0,123.0
239.0,-20.0,146.0,-13.0,117.0,1755.0,-358.0,123.0
240.0,-21.0,145.0,-14.0,118.0,1754.0,-80.0,123.0
240.0,-18.0,148.0,-12.0,120.0,1756.0,-78.0,125.0
240.0,-17.0,149.0,-11.0,120.0,1756.0,-170.0,126.0
241.0,-18.0,150.0,-11.0,120.0,1756.0,-295.0,127.0
241.0,-18.0,151.0,-11.0,121.0,1756.0,-371.0,128.0
241.0,-16.0,153.0,-9.0,122.0,1757.0,-316.0,130.0
243.0,-15.0,156.0,-9.0,121.0,1757.0,114.0,130.0
246.0,-14.0,159.0,-9.0,124.0,1761.0,529.0,132.0
249.0,-12.0,164.0,-8.0,127.0,1764.0,737.0,135.0
251.0,-11.0,166.0,-8.0,128.0,1766.0,891.0,137.0
253.0,-12.0,166.0,-9.0,129.0,1765.0,1177.0,137.0
256.0,-10.0,172.0,-7.0,132.0,1769.0,1212.0,141.0
258.0,-7.0,177.0,-5.0,134.0,1773.0,1053.0,144.0
260.0,-5.0,181.0,-3.0,136.0,1776.0,990.0,147.0
262.0,-3.0,186.0,-2.0,138.0,1779.0,902.0,150.0
264.0,-1.0,191.0,0.0,140.0,1783.0,608.0,154.0
267.0,-2.0,193.0,0.0,140.0,1784.0,566.0,154.0
271.0,-2.0,196.0,0.0,143.0,1786.0,730.0,157.0
273.0,0.0,201.0,0.0,145.0,1790.0,679.0,160.0
276.0,1.0,205.0,1.0,147.0,1792.0,681.0,162.0
280.0,1.0,207.0,1.0,149.0,1794.0,914.0,164.0
282.0,2.0,212.0,2.0,153.0,1798.0,919.0,168.0
284.0,2.0,215.0,4.0,155.0,1800.0,749.0,171.0
285.0,3.0,218.0,4.0,155.0,1802.0,753.0,172.0
287.0,4.0,220.0,5.0,157.0,1803.0,779.0,174.0
287.0,6.0,224.0,7.0,158.0,1805.0,535.0,177.0
288.0,5.0,223.0,6.0,156.0,1803.0,485.0,175.0
290.0,3.0,223.0,6.0,158.0,1803.0,696.0,176.0
291.0,2.0,224.0,6.0,159.0,1802.0,754.0,176.0
292.0,3.0,225.0,6.0,159.0,1803.0,830.0,177.0
294.0,3.0,225.0,4.0,160.0,1802.0,1079.0,177.0
293.0,3.0,226.0,5.0,162.0,1802.0,1093.0,179.0
293.0,4.0,227.0,6.0,161.0,1801.0,832.0,179.0
291.0,3.0,224.0,6.0,160.0,1799.0,747.0,177.0
289.0,2.0,223.0,6.0,159.0,1796.0,728.0,176.0
288.0,1.0,223.0,7.0,159.0,1795.0,531.0,177.0
286.0,0.0,219.0,5.0,155.0,1790.0,511.0,173.0
286.0,-1.0,216.0,4.0,155.0,1786.0,631.0,172.0
284.0,-2.0,214.0,3.0,154.0,1783.0,574.0,170.0
283.0,-3.0,211.0,2.0,152.0,1779.0,550.0,167.0
282.0,-5.0,207.0,0.0,150.0,1775.0,721.0,165.0
280.0,-7.0,205.0,0.0,151.0,1772.0,771.0,165.0
277.0,-9.0,202.0,0.0,150.0,1768.0,597.0,163.0
275.0,-8.0,199.0,0.0,147.0,1764.0,598.0,160.0
272.0,-8.0,196.0,0.0,145.0,1760.0,572.0,159.0
269.0,-10.0,194.0,0.0,144.0,1757.0,378.0,158.0
267.0,-13.0,189.0,-1.0,140.0,1751.0,346.0,153.0
265.0,-16.0,184.0,-3.0,139.0,1745.0,461.0,150.0
264.0,-20.0,181.0,-4.0,138.0,1740.0,390.0,148.0
261.0,-22.0,176.0,-6.0,135.0,1735.0,365.0,145.0
259.0,-25.0,171.0,-9.0,133.0,1729.0,560.0,141.0
257.0,-23.0,169.0,-8.0,133.0,1727.0,653.0,141.0
253.0,-21.0,167.0,-7.0,131.0,1724.0,507.0,139.0
250.0,-21.0,164.0,-8.0,129.0,1720.0,485.0,137.0
231.0,-20.0,143.0,-11.0,116.0,1688.0,323.0,121.0
229.0,-20.0,142.0,-10.0,115.0,1686.0,58.0,121.0
227.0,-19.0,140.0,-11.0,112.0,1683.0,-83.0,118.0
228.0,-21.0,138.0,-12.0,112.0,1680.0,50.0,117.0
226.0,-23.0,136.0,-13.0,111.0,1677.0,106.0,115.0
225.0,-22.0,134.0,-14.0,110.0,1674.0,250.0,114.0
225.0,-22.0,131.0,-15.0,108.0,1671.0,551.0,112.0
222.0,-21.0,129.0,-15.0,109.0,1668.0,705.0,111.0
219.0,-21.0,128.0,-15.0,107.0,1666.0,551.0,110.0
218.0,-19.0,127.0,-15.0,105.0,1664.0,508.0,109.0
216.0,-18.0,126.0,-14.0,104.0,1662.0,421.0,109.0
215.0,-16.0,128.0,-12.0,105.0,1662.0,78.0,110.0
214.0,-16.0,127.0,-13.0,103.0,1660.0,-43.0,108.0
214.0,-18.0,123.0,-15.0,102.0,1656.0,159.0,105.0
212.0,-19.0,121.0,-15.0,101.0,1653.0,168.0,104.0
212.0,-20.0,121.0,-16.0,101.0,1652.0,140.0,104.0
213.0,-21.0,119.0,-17.0,101.0,1649.0,282.0,102.0
213.0,-21.0,119.0,-17.0,102.0,1649.0,388.0,104.0
212.0,-20.0,121.0,-16.0,102.0,1649.0,171.0,104.0
212.0,-20.0,121.0,-16.0,101.0,1648.0,113.0,104.0
212.0,-20.0,121.0,-15.0,102.0,1647.0,37.0,105.0
211.0,-18.0,123.0,-14.0,102.0,1647.0,-188.0,106.0
210.0,-18.0,122.0,-14.0,99.0,1645.0,-211.0,104.0
211.0,-19.0,121.0,-15.0,100.0,1644.0,93.0,103.0
211.0,-19.0,120.0,-15.0,100.0,1642.0,159.0,103.0
211.0,-19.0,120.0,-15.0,100.0,1641.0,131.0,103.0
212.0,-21.0,119.0,-17.0,100.0,1639.0,253.0,102.0
212.0,-21.0,119.0,-16.0,101.0,1639.0,369.0,103.0
211.0,-20.0,120.0,-15.0,101.0,1638.0,198.0,104.0
211.0,-20.0,120.0,-15.0,101.0,1637.0,199.0,103.0
210.0,-19.0,120.0,-15.0,101.0,1636.0,164.0,104.0
209.0,-18.0,121.0,-13.0,101.0,1637.0,-9.0,105.0
209.0,-18.0,121.0,-14.0,99.0,1635.0,-98.0,104.0
210.0,-19.0,120.0,-15.0,99.0,1634.0,192.0,102.0
210.0,-19.0,120.0,-15.0,100.0,1632.0,289.0,103.0
210.0,-19.0,120.0,-15.0,99.0,1631.0,261.0,103.0
211.0,-20.0,118.0,-17.0,99.0,1629.0,370.0,101.0
211.0,-20.0,118.0,-16.0,101.0,1628.0,482.0,102.0
210.0,-20.0,119.0,-16.0,101.0,1628.0,346.0,103.0
210.0,-20.0,119.0,-15.0,100.0,1627.0,375.0,103.0
209.0,-19.0,119.0,-15.0,100.0,1627.0,377.0,103.0
208.0,-18.0,121.0,-13.0,101.0,1627.0,245.0,104.0
208.0,-18.0,120.0,-14.0,99.0,1625.0,119.0,103.0
208.0,-19.0,119.0,-15.0,99.0,1623.0,300.0,102.0
208.0,-19.0,119.0,-15.0,99.0,1622.0,265.0,102.0
209.0,-19.0,118.0,-16.0,99.0,1621.0,216.0,102.0
209.0,-20.0,117.0,-17.0,98.0,1618.0,414.0,101.0
209.0,-21.0,117.0,-16.0,100.0,1618.0,678.0,102.0
208.0,-20.0,118.0,-15.0,100.0,1618.0,584.0,103.0
208.0,-20.0,118.0,-15.0,99.0,1617.0,582.0,103.0
208.0,-20.0,118.0,-15.0,100.0,1616.0,537.0,102.0
207.0,-19.0,120.0,-13.0,100.0,1617.0,331.0,104.0
206.0,-18.0,119.0,-13.0,98.0,1615.0,255.0,102.0
207.0,-19.0,119.0,-15.0,98.0,1613.0,500.0,101.0
207.0,-19.0,118.0,-15.0,99.0,1612.0,469.0,101.0
207.0,-19.0,118.0,-15.0,99.0,1611.0,430.0,101.0
208.0,-20.0,117.0,-16.0,98.0,1609.0,581.0,100.0
208.0,-21.0,117.0,-17.0,99.0,1608.0,821.0,101.0
207.0,-20.0,118.0,-15.0,100.0,1608.0,650.0,102.0
207.0,-20.0,118.0,-15.0,99.0,1607.0,602.0,102.0
207.0,-20.0,118.0,-14.0,99.0,1606.0,558.0,102.0
206.0,-18.0,119.0,-13.0,99.0,1606.0,344.0,103.0
205.0,-17.0,119.0,-14.0,98.0,1604.0,119.0,102.0
206.0,-18.0,118.0,-14.0,98.0,1603.0,220.0,101.0
206.0,-19.0,117.0,-15.0,98.0,1602.0,218.0,101.0
206.0,-19.0,117.0,-15.0,98.0,1600.0,154.0,100.0
207.0,-20.0,116.0,-16.0,97.0,1598.0,237.0,99.0
207.0,-21.0,116.0,-16.0,99.0,1598.0,477.0,100.0
206.0,-19.0,117.0,-15.0,99.0,1598.0,338.0,101.0
206.0,-19.0,117.0,-15.0,98.0,1597.0,326.0,101.0
205.0,-19.0,117.0,-15.0,98.0,1596.0,482.0,101.0
204.0,-18.0,118.0,-13.0,99.0,1596.0,584.0,102.0
204.0,-18.0,118.0,-13.0,97.0,1595.0,507.0,101.0
204.0,-18.0,117.0,-14.0,96.0,1592.0,777.0,100.0
205.0,-19.0,116.0,-15.0,97.0,1591.0,861.0,100.0
204.0,-19.0,116.0,-15.0,97.0,1590.0,928.0,100.0
205.0,-20.0,115.0,-16.0,97.0,1588.0,1124.0,99.0
206.0,-21.0,115.0,-16.0,98.0,1588.0,1387.0,100.0
205.0,-20.0,116.0,-15.0,99.0,1588.0,1185.0,101.0
204.0,-19.0,116.0,-15.0,98.0,1587.0,1141.0,101.0
204.0,-19.0,116.0,-15.0,98.0,1586.0,1201.0,101.0
203.0,-18.0,118.0,-13.0,99.0,1586.0,1037.0,102.0
202.0,-17.0,118.0,-13.0,97.0,1585.0,759.0,101.0
203.0,-18.0,116.0,-14.0,96.0,1583.0,878.0,100.0
204.0,-18.0,116.0,-15.0,97.0,1581.0,855.0,99.0
204.0,-19.0,116.0,-15.0,96.0,1580.0,812.0,99.0
204.0,-20.0,115.0,-16.0,96.0,1579.0,1001.0,98.0
205.0,-21.0,114.0,-16.0,98.0,1578.0,1245.0,99.0
204.0,-19.0,115.0,-15.0,98.0,1578.0,1053.0,100.0
203.0,-19.0,115.0,-15.0,97.0,1577.0,1001.0,100.0
203.0,-19.0,116.0,-14.0,97.0,1576.0,1032.0,100.0
202.0,-18.0,117.0,-13.0,98.0,1576.0,935.0,101.0
201.0,-17.0,117.0,-13.0,96.0,1575.0,744.0,100.0
202.0,-18.0,116.0,-14.0,95.0,1573.0,941.0,99.0
202.0,-18.0,115.0,-14.0,96.0,1572.0,965.0,99.0
202.0,-19.0,115.0,-15.0,96.0,1571.0,965.0,99.0
202.0,-20.0,113.0,-16.0,95.0,1568.0,1197.0,97.0
203.0,-20.0,113.0,-17.0,96.0,1567.0,1548.0,98.0
202.0,-20.0,114.0,-15.0,97.0,1568.0,1329.0,100.0
202.0,-19.0,114.0,-15.0,96.0,1567.0,1189.0,99.0
201.0,-19.0,115.0,-14.0,96.0,1566.0,1106.0,99.0
201.0,-18.0,116.0,-13.0,97.0,1566.0,886.0,101.0
200.0,-17.0,116.0,-13.0,96.0,1565.0,647.0,100.0
200.0,-18.0,115.0,-14.0,95.0,1563.0,893.0,98.0
201.0,-19.0,115.0,-14.0,96.0,1562.0,1028.0,99.0
201.0,-19.0,114.0,-15.0,96.0,1561.0,1111.0,98.0
201.0,-19.0,113.0,-16.0,94.0,1559.0,1245.0,97.0
202.0,-20.0,112.0,-16.0,96.0,1557.0,1492.0,97.0
201.0,-19.0,114.0,-15.0,97.0,1558.0,1315.0,99.0
201.0,-19.0,114.0,-14.0,96.0,1557.0,1278.0,98.0
200.0,-19.0,114.0,-14.0,95.0,1556.0,1348.0,99.0
200.0,-18.0,115.0,-13.0,96.0,1556.0,1278.0,100.0
199.0,-17.0,116.0,-13.0,95.0,1556.0,1054.0,99.0
199.0,-18.0,114.0,-14.0,94.0,1553.0,1257.0,98.0
199.0,-18.0,114.0,-14.0,95.0,1552.0,1350.0,98.0
199.0,-18.0,114.0,-14.0,94.0,1551.0,1236.0,97.0
200.0,-19.0,113.0,-16.0,94.0,1549.0,1068.0,96.0
200.0,-20.0,112.0,-16.0,95.0,1548.0,989.0,97.0
199.0,-19.0,113.0,-15.0,96.0,1549.0,572.0,98.0
199.0,-19.0,113.0,-14.0,95.0,1547.0,367.0,98.0
199.0,-19.0,113.0,-14.0,95.0,1547.0,280.0,98.0
198.0,-18.0,115.0,-13.0,96.0,1547.0,75.0,99.0
197.0,-17.0,115.0,-13.0,95.0,1545.0,-280.0,99.0
198.0,-18.0,113.0,-14.0,93.0,1543.0,-204.0,97.0
198.0,-18.0,113.0,-14.0,94.0,1542.0,-147.0,97.0
198.0,-19.0,113.0,-14.0,94.0,1541.0,-192.0,97.0
198.0,-19.0,112.0,-16.0,93.0,1539.0,-109.0,96.0
199.0,-20.0,111.0,-16.0,94.0,1538.0,120.0,96.0
198.0,-19.0,113.0,-14.0,96.0,1539.0,-44.0,98.0
198.0,-19.0,113.0,-14.0,95.0,1538.0,-77.0,97.0
198.0,-19.0,112.0,-14.0,95.0,1537.0,-7.0,98.0
197.0,-18.0,114.0,-13.0,95.0,1537.0,-82.0,99.0
196.0,-17.0,114.0,-12.0,94.0,1536.0,-392.0,98.0
197.0,-18.0,113.0,-14.0,93.0,1534.0,-215.0,96.0
197.0,-18.0,112.0,-14.0,94.0,1533.0,-123.0,96.0
197.0,-18.0,112.0,-14.0,93.0,1532.0,-205.0,96.0
197.0,-19.0,111.0,-15.0,93.0,1530.0,-187.0,95.0
198.0,-20.0,110.0,-16.0,94.0,1528.0,0.0,95.0
197.0,-19.0,111.0,-15.0,95.0,1529.0,-191.0,97.0
196.0,-19.0,112.0,-14.0,94.0,1528.0,-301.0,97.0
196.0,-19.0,112.0,-14.0,94.0,1527.0,-307.0,97.0
196.0,-18.0,113.0,-13.0,95.0,1527.0,-489.0,98.0
195.0,-17.0,113.0,-12.0,94.0,1527.0,-789.0,97.0
195.0,-18.0,112.0,-14.0,92.0,1524.0,-554.0,96.0
195.0,-18.0,111.0,-14.0,93.0,1523.0,-421.0,96.0
195.0,-18.0,111.0,-14.0,93.0,1522.0,-480.0,95.0
196.0,-19.0,110.0,-15.0,92.0,1520.0,-412.0,95.0
197.0,-20.0,109.0,-16.0,93.0,1519.0,-69.0,94.0
196.0,-19.0,111.0,-15.0,94.0,1519.0,-153.0,96.0
195.0,-18.0,111.0,-14.0,94.0,1518.0,-175.0,96.0
195.0,-18.0,111.0,-14.0,93.0,1517.0,-237.0,96.0
194.0,-17.0,112.0,-13.0,94.0,1517.0,-462.0,97.0
193.0,-16.0,113.0,-12.0,93.0,1517.0,-718.0,97.0
194.0,-17.0,111.0,-14.0,92.0,1514.0,-299.0,95.0
194.0,-17.0,111.0,-14.0,93.0,1513.0,47.0,95.0
194.0,-17.0,111.0,-14.0,93.0,1512.0,111.0,95.0
194.0,-18.0,110.0,-15.0,92.0,1511.0,170.0,95.0
195.0,-20.0,109.0,-16.0,92.0,1509.0,449.0,94.0
195.0,-19.0,110.0,-15.0,94.0,1510.0,397.0,96.0
194.0,-19.0,110.0,-15.0,92.0,1509.0,382.0,96.0
194.0,-18.0,110.0,-14.0,92.0,1508.0,393.0,96.0
193.0,-18.0,111.0,-13.0,93.0,1508.0,216.0,96.0
192.0,-16.0,113.0,-12.0,93.0,1508.0,-96.0,96.0
194.0,-16.0,113.0,-13.0,92.0,1508.0,-3.0,96.0
197.0,-15.0,117.0,-12.0,95.0,1511.0,76.0,99.0
199.0,-14.0,119.0,-12.0,96.0,1512.0,107.0,100.0
201.0,-14.0,121.0,-12.0,97.0,1513.0,192.0,102.0
205.0,-16.0,123.0,-13.0,100.0,1515.0,520.0,104.0
208.0,-17.0,128.0,-10.0,104.0,1519.0,471.0,109.0
209.0,-16.0,131.0,-10.0,105.0,1520.0,324.0,110.0
211.0,-16.0,134.0,-9.0,107.0,1522.0,199.0,113.0
213.0,-15.0,137.0,-8.0,109.0,1525.0,4.0,115.0
213.0,-14.0,139.0,-6.0,109.0,1526.0,-294.0,116.0
214.0,-12.0,139.0,-7.0,107.0,1525.0,-169.0,115.0
214.0,-12.0,140.0,-7.0,109.0,1525.0,-90.0,116.0
216.0,-14.0,140.0,-7.0,110.0,1524.0,-105.0,116.0
217.0,-15.0,140.0,-8.0,110.0,1523.0,-94.0,116.0
218.0,-16.0,139.0,-10.0,110.0,1522.0,137.0,115.0
217.0,-16.0,141.0,-8.0,112.0,1522.0,79.0,117.0
217.0,-16.0,141.0,-8.0,111.0,1521.0,8.0,117.0
216.0,-16.0,140.0,-8.0,111.0,1520.0,-25.0,117.0
216.0,-18.0,139.0,-7.0,111.0,1518.0,-159.0,118.0
214.0,-18.0,140.0,-6.0,110.0,1518.0,-498.0,118.0
215.0,-19.0,138.0,-7.0,109.0,1515.0,-449.0,116.0
215.0,-18.0,137.0,-8.0,109.0,1513.0,-319.0,115.0
213.0,-17.0,136.0,-8.0,107.0,1511.0,-256.0,114.0
213.0,-17.0,135.0,-9.0,107.0,1509.0,-149.0,113.0
213.0,-18.0,134.0,-10.0,107.0,1507.0,123.0,112.0
213.0,-18.0,134.0,-9.0,108.0,1507.0,68.0,113.0
210.0,-19.0,131.0,-9.0,106.0,1504.0,-33.0,111.0
209.0,-19.0,131.0,-9.0,106.0,1502.0,-40.0,111.0
208.0,-19.0,130.0,-9.0,105.0,1501.0,-174.0,111.0
205.0,-19.0,129.0,-8.0,104.0,1498.0,-534.0,110.0
205.0,-19.0,126.0,-10.0,101.0,1495.0,-467.0,106.0
203.0,-18.0,124.0,-10.0,100.0,1492.0,-312.0,105.0
201.0,-18.0,122.0,-11.0,99.0,1489.0,-397.0,103.0
200.0,-20.0,119.0,-12.0,98.0,1486.0,-396.0,101.0
200.0,-20.0,117.0,-14.0,97.0,1483.0,-186.0,100.0
198.0,-18.0,117.0,-12.0,97.0,1482.0,-300.0,101.0
196.0,-18.0,115.0,-12.0,95.0,1479.0,-476.0,100.0
193.0,-17.0,112.0,-13.0,94.0,1476.0,-457.0,97.0
191.0,-16.0,112.0,-12.0,93.0,1474.0,-560.0,96.0
188.0,-15.0,111.0,-11.0,91.0,1472.0,-880.0,95.0
187.0,-16.0,108.0,-13.0,89.0,1468.0,-816.0,92.0
188.0,-17.0,107.0,-13.0,89.0,1466.0,-717.0,92.0
188.0,-18.0,107.0,-13.0,89.0,1465.0,-723.0,92.0
188.0,-18.0,106.0,-14.0,89.0,1464.0,-613.0,91.0
189.0,-19.0,104.0,-16.0,89.0,1462.0,-317.0,90.0
189.0,-19.0,106.0,-14.0,91.0,1462.0,-310.0,92.0
188.0,-18.0,106.0,-14.0,90.0,1462.0,-406.0,92.0
187.0,-18.0,106.0,-14.0,89.0,1461.0,-381.0,92.0
187.0,-17.0,107.0,-13.0,90.0,1460.0,-417.0,93.0
186.0,-16.0,108.0,-11.0,90.0,1460.0,-682.0,94.0
185.0,-17.0,107.0,-13.0,88.0,1458.0,-632.0,92.0
186.0,-17.0,106.0,-14.0,88.0,1457.0,-499.0,91.0
186.0,-17.0,106.0,-14.0,88.0,1456.0,-535.0,91.0
187.0,-18.0,105.0,-14.0,88.0,1454.0,-525.0,90.0
188.0,-19.0,104.0,-16.0,88.0,1453.0,-289.0,90.0
187.0,-19.0,106.0,-14.0,90.0,1453.0,-348.0,92.0
186.0,-18.0,106.0,-14.0,89.0,1453.0,-530.0,92.0
186.0,-17.0,106.0,-13.0,89.0,1452.0,-556.0,92.0
186.0,-17.0,106.0,-13.0,90.0,1451.0,-572.0,92.0
185.0,-16.0,108.0,-11.0,89.0,1451.0,-752.0,93.0
185.0,-17.0,106.0,-12.0,87.0,1449.0,-655.0,91.0
185.0,-17.0,106.0,-13.0,88.0,1448.0,-496.0,91.0
186.0,-17.0,106.0,-13.0,88.0,1447.0,-541.0,91.0
186.0,-18.0,105.0,-14.0,88.0,1446.0,-511.0,90.0
187.0,-19.0,104.0,-15.0,88.0,1444.0,-279.0,89.0
186.0,-18.0,105.0,-14.0,89.0,1444.0,-297.0,91.0
185.0,-18.0,105.0,-14.0,89.0,1444.0,-424.0,91.0
185.0,-18.0,105.0,-14.0,89.0,1443.0,-376.0,91.0
185.0,-17.0,105.0,-13.0,89.0,1442.0,-417.0,91.0
184.0,-16.0,107.0,-11.0,89.0,1442.0,-679.0,92.0
184.0,-17.0,106.0,-13.0,87.0,1440.0,-654.0,90.0
184.0,-17.0,105.0,-13.0,87.0,1439.0,-529.0,90.0
184.0,-17.0,105.0,-13.0,87.0,1438.0,-567.0,90.0
184.0,-18.0,104.0,-14.0,87.0,1436.0,-543.0,90.0
186.0,-19.0,102.0,-16.0,87.0,1434.0,-307.0,89.0
185.0,-18.0,104.0,-14.0,89.0,1435.0,-49.0,90.0
181.0,-18.0,108.0,-13.0,86.0,1430.0,9.0,87.0
175.0,-21.0,116.0,-11.0,81.0,1421.0,107.0,82.0
170.0,-23.0,124.0,-8.0,78.0,1414.0,88.0,78.0
164.0,-23.0,133.0,-5.0,74.0,1407.0,-177.0,74.0
161.0,-22.0,134.0,-6.0,70.0,1402.0,-118.0,69.0
163.0,-15.0,127.0,-9.0,73.0,1408.0,92.0,73.0
170.0,-7.0,114.0,-13.0,78.0,1419.0,130.0,80.0
182.0,8.0,90.0,-20.0,88.0,1441.0,188.0,95.0
203.0,33.0,51.0,-32.0,104.0,1476.0,396.0,116.0
227.0,57.0,11.0,-42.0,125.0,1517.0,374.0,145.0
251.0,80.0,-29.0,-52.0,145.0,1558.0,171.0,173.0
277.0,101.0,-72.0,-63.0,165.0,1598.0,167.0,200.0
302.0,124.0,-114.0,-73.0,186.0,1639.0,20.0,228.0
326.0,146.0,-155.0,-83.0,206.0,1681.0,-363.0,256.0
352.0,165.0,-197.0,-94.0,223.0,1719.0,-434.0,281.0
379.0,177.0,-235.0,-104.0,244.0,1755.0,-284.0,306.0
404.0,180.0,-266.0,-111.0,262.0,1785.0,-367.0,329.0
424.0,179.0,-291.0,-116.0,277.0,1807.0,-563.0,347.0
440.0,180.0,-312.0,-122.0,287.0,1824.0,-525.0,359.0
449.0,183.0,-323.0,-124.0,296.0,1836.0,-531.0,370.0
454.0,176.0,-325.0,-122.0,299.0,1838.0,-727.0,373.0
455.0,165.0,-320.0,-119.0,298.0,1833.0,-679.0,371.0
450.0,157.0,-310.0,-116.0,294.0,1823.0,-641.0,366.0
439.0,149.0,-292.0,-110.0,287.0,1807.0,-893.0,356.0
427.0,138.0,-273.0,-106.0,276.0,1785.0,-958.0,342.0
414.0,123.0,-249.0,-100.0,265.0,1759.0,-827.0,325.0
395.0,103.0,-216.0,-91.0,250.0,1726.0,-836.0,304.0
372.0,82.0,-178.0,-82.0,232.0,1687.0,-805.0,279.0
348.0,58.0,-139.0,-72.0,212.0,1644.0,-592.0,251.0
322.0,32.0,-92.0,-59.0,193.0,1600.0,-607.0,224.0
295.0,6.0,-46.0,-46.0,172.0,1554.0,-837.0,195.0
269.0,-14.0,-4.0,-35.0,151.0,1513.0,-923.0,168.0
243.0,-32.0,36.0,-24.0,131.0,1472.0,-1021.0,141.0
215.0,-49.0,78.0,-13.0,110.0,1432.0,-1176.0,115.0
188.0,-66.0,103.0,-12.0,86.0,1387.0,-1158.0,84.0
160.0,-90.0,106.0,-12.0,64.0,1340.0,-1024.0,54.0
135.0,-100.0,107.0,-12.0,46.0,1305.0,-1093.0,30.0
121.0,-86.0,106.0,-12.0,37.0,1295.0,-1106.0,20.0
121.0,-72.0,105.0,-14.0,37.0,1300.0,-871.0,22.0
132.0,-61.0,106.0,-13.0,48.0,1319.0,-798.0,36.0
146.0,-47.0,107.0,-12.0,59.0,1343.0,-1023.0,52.0
159.0,-36.0,106.0,-12.0,70.0,1364.0,-1028.0,66.0
169.0,-26.0,106.0,-12.0,78.0,1381.0,-976.0,78.0
175.0,-18.0,108.0,-10.0,83.0,1392.0,-1129.0,86.0
176.0,-18.0,107.0,-11.0,82.0,1392.0,-1123.0,85.0
176.0,-18.0,106.0,-12.0,82.0,1390.0,-1002.0,85.0
176.0,-18.0,106.0,-12.0,83.0,1390.0,-1013.0,85.0
176.0,-19.0,106.0,-13.0,82.0,1388.0,-982.0,84.0
177.0,-20.0,104.0,-14.0,82.0,1386.0,-751.0,83.0
177.0,-19.0,105.0,-13.0,84.0,1386.0,-605.0,85.0
176.0,-19.0,105.0,-12.0,83.0,1386.0,-816.0,85.0
177.0,-19.0,105.0,-12.0,83.0,1385.0,-830.0,85.0
176.0,-19.0,106.0,-12.0,84.0,1385.0,-920.0,86.0
175.0,-17.0,107.0,-10.0,84.0,1385.0,-1211.0,87.0
174.0,-17.0,106.0,-11.0,82.0,1383.0,-1311.0,85.0
175.0,-18.0,105.0,-12.0,82.0,1382.0,-1161.0,84.0
175.0,-18.0,105.0,-12.0,82.0,1381.0,-1160.0,84.0
175.0,-18.0,105.0,-12.0,82.0,1380.0,-1170.0,84.0
176.0,-20.0,103.0,-14.0,81.0,1377.0,-1040.0,83.0
176.0,-20.0,104.0,-13.0,83.0,1378.0,-993.0,84.0
175.0,-18.0,104.0,-12.0,83.0,1378.0,-1152.0,85.0
175.0,-18.0,104.0,-12.0,83.0,1377.0,-1133.0,85.0
175.0,-18.0,105.0,-12.0,83.0,1376.0,-1169.0,85.0
174.0,-17.0,107.0,-10.0,83.0,1376.0,-1350.0,86.0
173.0,-17.0,106.0,-11.0,81.0,1374.0,-1395.0,84.0
174.0,-18.0,105.0,-11.0,81.0,1373.0,-1224.0,84.0
174.0,-18.0,104.0,-11.0,82.0,1372.0,-1232.0,84.0
174.0,-18.0,104.0,-12.0,81.0,1371.0,-1197.0,83.0
175.0,-19.0,102.0,-13.0,81.0,1369.0,-1003.0,82.0
175.0,-20.0,103.0,-13.0,83.0,1369.0,-920.0,84.0
174.0,-19.0,104.0,-12.0,82.0,1369.0,-1060.0,84.0
174.0,-18.0,104.0,-12.0,82.0,1368.0,-970.0,84.0
173.0,-18.0,104.0,-11.0,82.0,1367.0,-956.0,84.0
172.0,-17.0,106.0,-10.0,83.0,1368.0,-1149.0,85.0
172.0,-17.0,105.0,-10.0,81.0,1366.0,-1260.0,84.0
172.0,-18.0,104.0,-12.0,80.0,1364.0,-1089.0,83.0
173.0,-18.0,104.0,-11.0,81.0,1364.0,-1155.0,83.0
172.0,-18.0,104.0,-12.0,81.0,1363.0,-1220.0,83.0
173.0,-19.0,102.0,-13.0,81.0,1361.0,-1056.0,82.0
174.0,-19.0,102.0,-13.0,83.0,1360.0,-953.0,83.0
173.0,-18.0,103.0,-12.0,82.0,1360.0,-1128.0,84.0
173.0,-18.0,103.0,-12.0,81.0,1359.0,-1153.0,83.0
172.0,-18.0,103.0,-11.0,82.0,1359.0,-1208.0,84.0
172.0,-16.0,107.0,-9.0,83.0,1361.0,-1418.0,86.0
173.0,-14.0,108.0,-9.0,82.0,1361.0,-1483.0,86.0
174.0,-15.0,108.0,-10.0,83.0,1360.0,-1219.0,86.0
175.0,-15.0,109.0,-10.0,84.0,1361.0,-1161.0,87.0
177.0,-14.0,111.0,-10.0,85.0,1362.0,-1129.0,88.0
179.0,-16.0,110.0,-11.0,85.0,1361.0,-952.0,87.0
181.0,-18.0,112.0,-11.0,88.0,1362.0,-826.0,89.0
180.0,-18.0,113.0,-10.0,88.0,1362.0,-1008.0,91.0
180.0,-17.0,113.0,-9.0,88.0,1361.0,-977.0,91.0
180.0,-16.0,115.0,-9.0,88.0,1362.0,-1015.0,92.0
181.0,-14.0,119.0,-7.0,90.0,1365.0,-1287.0,95.0
181.0,-14.0,118.0,-7.0,88.0,1364.0,-1444.0,93.0
182.0,-15.0,118.0,-8.0,89.0,1362.0,-1311.0,93.0
183.0,-17.0,119.0,-8.0,90.0,1362.0,-1313.0,94.0
185.0,-17.0,119.0,-8.0,90.0,1362.0,-1288.0,94.0
185.0,-16.0,119.0,-9.0,90.0,1362.0,-1141.0,94.0
186.0,-15.0,120.0,-9.0,92.0,1362.0,-1058.0,95.0
186.0,-15.0,122.0,-7.0,93.0,1363.0,-1303.0,97.0
187.0,-16.0,123.0,-7.0,93.0,1363.0,-1377.0,98.0
187.0,-16.0,124.0,-7.0,93.0,1363.0,-1430.0,98.0
187.0,-14.0,128.0,-5.0,96.0,1366.0,-1609.0,101.0
189.0,-11.0,132.0,-4.0,96.0,1369.0,-1704.0,102.0
193.0,-11.0,135.0,-4.0,98.0,1371.0,-1501.0,105.0
196.0,-9.0,139.0,-3.0,100.0,1374.0,-1537.0,107.0
197.0,-8.0,140.0,-3.0,101.0,1376.0,-1569.0,108.0
200.0,-8.0,142.0,-4.0,102.0,1376.0,-1426.0,109.0
203.0,-7.0,146.0,-2.0,105.0,1380.0,-1284.0,113.0
205.0,-4.0,152.0,0.0,108.0,1384.0,-1411.0,117.0
208.0,-2.0,156.0,0.0,110.0,1388.0,-1331.0,120.0
210.0,-1.0,161.0,2.0,112.0,1391.0,-1293.0,123.0
212.0,0.0,165.0,4.0,115.0,1395.0,-1424.0,126.0
214.0,0.0,168.0,4.0,115.0,1397.0,-1492.0,128.0
218.0,1.0,172.0,4.0,117.0,1399.0,-1178.0,129.0
220.0,2.0,176.0,5.0,119.0,1403.0,-1113.0,132.0
223.0,4.0,180.0,6.0,121.0,1406.0,-1107.0,135.0
227.0,5.0,183.0,5.0,123.0,1408.0,-992.0,136.0
230.0,3.0,186.0,6.0,127.0,1411.0,-718.0,140.0
232.0,5.0,190.0,8.0,129.0,1414.0,-782.0,143.0
232.0,6.0,192.0,9.0,129.0,1414.0,-744.0,144.0
234.0,7.0,194.0,9.0,130.0,1416.0,-714.0,146.0
234.0,8.0,197.0,11.0,131.0,1418.0,-907.0,148.0
235.0,7.0,198.0,11.0,131.0,1418.0,-1134.0,148.0
236.0,5.0,196.0,10.0,131.0,1416.0,-894.0,147.0
237.0,5.0,197.0,10.0,132.0,1417.0,-757.0,148.0
239.0,6.0,200.0,10.0,133.0,1418.0,-676.0,149.0
240.0,6.0,199.0,9.0,133.0,1417.0,-550.0,148.0
240.0,5.0,199.0,9.0,134.0,1416.0,-485.0,149.0
238.0,6.0,198.0,10.0,134.0,1415.0,-800.0,150.0
236.0,5.0,196.0,10.0,132.0,1411.0,-881.0,148.0
236.0,3.0,195.0,9.0,131.0,1410.0,-830.0,147.0
234.0,2.0,194.0,10.0,131.0,1408.0,-850.0,147.0
232.0,2.0,192.0,9.0,128.0,1404.0,-918.0,145.0
231.0,0.0,188.0,8.0,126.0,1400.0,-709.0,142.0
229.0,0.0,186.0,7.0,126.0,1397.0,-707.0,140.0
228.0,-1.0,183.0,6.0,125.0,1394.0,-676.0,138.0
227.0,-3.0,179.0,4.0,123.0,1390.0,-517.0,135.0
226.0,-6.0,176.0,3.0,123.0,1385.0,-216.0,134.0
222.0,-6.0,173.0,3.0,121.0,1383.0,-320.0,133.0
219.0,-5.0,170.0,3.0,119.0,1378.0,-333.0,130.0
218.0,-8.0,167.0,2.0,117.0,1374.0,-319.0,128.0
215.0,-10.0,165.0,2.0,116.0,1371.0,-500.0,127.0
212.0,-12.0,160.0,2.0,113.0,1366.0,-747.0,124.0
211.0,-16.0,156.0,0.0,111.0,1361.0,-504.0,121.0
210.0,-19.0,152.0,-1.0,110.0,1356.0,-336.0,118.0
207.0,-21.0,147.0,-2.0,107.0,1351.0,-255.0,115.0
204.0,-22.0,143.0,-4.0,105.0,1346.0,-168.0,112.0
202.0,-20.0,140.0,-5.0,105.0,1343.0,-47.0,110.0
199.0,-19.0,139.0,-4.0,103.0,1341.0,-279.0,110.0
197.0,-19.0,137.0,-4.0,102.0,1338.0,-359.0,108.0
195.0,-20.0,135.0,-4.0,100.0,1335.0,-332.0,107.0
193.0,-20.0,133.0,-4.0,100.0,1333.0,-402.0,106.0
190.0,-17.0,132.0,-3.0,98.0,1331.0,-579.0,104.0
188.0,-18.0,128.0,-5.0,95.0,1326.0,-391.0,101.0
187.0,-19.0,126.0,-6.0,95.0,1324.0,-336.0,99.0
186.0,-18.0,124.0,-6.0,93.0,1321.0,-276.0,98.0
185.0,-20.0,120.0,-8.0,91.0,1317.0,-112.0,95.0
184.0,-20.0,118.0,-9.0,91.0,1314.0,73.0,94.0
182.0,-19.0,118.0,-7.0,91.0,1313.0,-92.0,95.0
180.0,-17.0,117.0,-7.0,89.0,1311.0,-108.0,94.0
178.0,-19.0,115.0,-8.0,88.0,1309.0,-99.0,92.0
176.0,-18.0,114.0,-7.0,88.0,1307.0,-165.0,92.0
174.0,-17.0,114.0,-6.0,86.0,1305.0,-388.0,91.0
174.0,-20.0,110.0,-9.0,84.0,1301.0,-207.0,88.0
173.0,-20.0,108.0,-9.0,84.0,1299.0,-70.0,87.0
172.0,-19.0,107.0,-10.0,83.0,1297.0,1.0,86.0
170.0,-18.0,104.0,-11.0,81.0,1293.0,147.0,83.0
169.0,-19.0,100.0,-12.0,80.0,1289.0,363.0,81.0
167.0,-18.0,101.0,-11.0,80.0,1289.0,116.0,81.0
165.0,-16.0,100.0,-11.0,78.0,1287.0,45.0,80.0
164.0,-16.0,99.0,-11.0,78.0,1286.0,64.0,80.0
163.0,-15.0,101.0,-9.0,79.0,1286.0,-74.0,81.0
161.0,-14.0,100.0,-9.0,77.0,1284.0,-281.0,80.0
161.0,-16.0,96.0,-11.0,74.0,1280.0,-139.0,77.0
160.0,-17.0,95.0,-12.0,75.0,1278.0,-142.0,76.0
160.0,-17.0,95.0,-12.0,75.0,1277.0,-174.0,76.0
161.0,-18.0,94.0,-12.0,75.0,1275.0,-146.0,75.0
162.0,-19.0,93.0,-13.0,75.0,1274.0,0.0,75.0
161.0,-18.0,95.0,-12.0,76.0,1275.0,-229.0,77.0
160.0,-18.0,95.0,-11.0,75.0,1274.0,-365.0,77.0
160.0,-17.0,95.0,-11.0,75.0,1273.0,-309.0,76.0
159.0,-17.0,95.0,-10.0,75.0,1273.0,-343.0,77.0
158.0,-16.0,96.0,-10.0,75.0,1273.0,-540.0,77.0
159.0,-17.0,95.0,-11.0,74.0,1271.0,-388.0,76.0
159.0,-17.0,95.0,-11.0,74.0,1270.0,-325.0,76.0
159.0,-17.0,94.0,-12.0,74.0,1269.0,-336.0,75.0
160.0,-18.0,93.0,-12.0,74.0,1268.0,-147.0,75.0
160.0,-19.0,92.0,-13.0,74.0,1267.0,124.0,74.0
159.0,-18.0,94.0,-12.0,75.0,1267.0,1.0,76.0
159.0,-18.0,94.0,-12.0,75.0,1266.0,-100.0,76.0
159.0,-17.0,94.0,-12.0,75.0,1265.0,-71.0,76.0
158.0,-17.0,95.0,-10.0,75.0,1265.0,-184.0,77.0
157.0,-16.0,96.0,-9.0,74.0,1265.0,-479.0,77.0
158.0,-16.0,94.0,-11.0,73.0,1263.0,-408.0,76.0
158.0,-17.0,94.0,-11.0,74.0,1262.0,-497.0,75.0
158.0,-17.0,94.0,-12.0,73.0,1261.0,-722.0,75.0
158.0,-17.0,93.0,-12.0,73.0,1259.0,-743.0,74.0
159.0,-19.0,92.0,-13.0,74.0,1258.0,-630.0,74.0
159.0,-18.0,93.0,-12.0,75.0,1259.0,-851.0,76.0
158.0,-18.0,93.0,-11.0,74.0,1258.0,-972.0,76.0
158.0,-17.0,93.0,-11.0,74.0,1257.0,-924.0,75.0
157.0,-16.0,94.0,-10.0,75.0,1257.0,-938.0,76.0
156.0,-15.0,95.0,-9.0,74.0,1257.0,-1034.0,76.0
156.0,-16.0,93.0,-11.0,72.0,1255.0,-750.0,75.0
157.0,-17.0,93.0,-11.0,73.0,1254.0,-593.0,75.0
157.0,-17.0,93.0,-12.0,73.0,1253.0,-564.0,75.0
158.0,-18.0,92.0,-13.0,72.0,1252.0,-423.0,74.0
159.0,-19.0,91.0,-13.0,73.0,1250.0,-95.0,73.0
158.0,-18.0,92.0,-12.0,74.0,1251.0,-223.0,75.0
157.0,-17.0,92.0,-12.0,74.0,1250.0,-308.0,75.0
157.0,-17.0,93.0,-11.0,74.0,1249.0,-267.0,75.0
156.0,-17.0,93.0,-10.0,74.0,1250.0,-298.0,76.0
155.0,-15.0,94.0,-9.0,74.0,1249.0,-506.0,76.0
156.0,-16.0,93.0,-11.0,72.0,1247.0,-358.0,74.0
156.0,-17.0,93.0,-11.0,73.0,1247.0,-289.0,74.0
156.0,-17.0,93.0,-11.0,73.0,1246.0,-235.0,74.0
157.0,-17.0,92.0,-12.0,72.0,1244.0,-3.0,73.0
157.0,-18.0,90.0,-13.0,73.0,1242.0,360.0,73.0
156.0,-18.0,92.0,-12.0,74.0,1243.0,255.0,75.0
156.0,-17.0,92.0,-11.0,73.0,1242.0,146.0,75.0
156.0,-17.0,92.0,-11.0,73.0,1242.0,155.0,75.0
155.0,-17.0,93.0,-10.0,74.0,1242.0,62.0,76.0
154.0,-15.0,94.0,-10.0,73.0,1241.0,-220.0,76.0
155.0,-16.0,92.0,-11.0,72.0,1239.0,-110.0,74.0
155.0,-17.0,92.0,-11.0,72.0,1238.0,-23.0,74.0
156.0,-17.0,92.0,-11.0,72.0,1237.0,-50.0,74.0
155.0,-17.0,91.0,-12.0,72.0,1236.0,-10.0,73.0
156.0,-18.0,90.0,-13.0,73.0,1235.0,194.0,72.0
155.0,-18.0,91.0,-12.0,74.0,1235.0,57.0,74.0
155.0,-17.0,91.0,-12.0,73.0,1235.0,-22.0,74.0
155.0,-17.0,92.0,-11.0,73.0,1234.0,-53.0,74.0
154.0,-16.0,93.0,-10.0,73.0,1234.0,-225.0,75.0
154.0,-15.0,94.0,-9.0,73.0,1234.0,-449.0,75.0
154.0,-16.0,92.0,-10.0,71.0,1232.0,-285.0,73.0
154.0,-16.0,91.0,-11.0,72.0,1231.0,-257.0,73.0
154.0,-17.0,91.0,-11.0,72.0,1230.0,-486.0,73.0
154.0,-17.0,91.0,-12.0,71.0,1229.0,-456.0,73.0
156.0,-18.0,89.0,-13.0,72.0,1227.0,-98.0,72.0
155.0,-18.0,91.0,-12.0,73.0,1227.0,-139.0,73.0
154.0,-17.0,91.0,-11.0,73.0,1227.0,-167.0,73.0
154.0,-17.0,91.0,-11.0,73.0,1226.0,-28.0,73.0
154.0,-17.0,92.0,-10.0,73.0,1226.0,25.0,74.0
152.0,-15.0,93.0,-9.0,72.0,1226.0,-225.0,75.0
153.0,-16.0,91.0,-10.0,71.0,1224.0,-193.0,73.0
153.0,-16.0,91.0,-11.0,71.0,1223.0,-71.0,73.0
153.0,-17.0,91.0,-11.0,71.0,1222.0,-46.0,73.0
153.0,-17.0,90.0,-12.0,71.0,1221.0,-54.0,72.0
154.0,-18.0,89.0,-13.0,71.0,1219.0,146.0,72.0
154.0,-18.0,90.0,-12.0,73.0,1220.0,42.0,73.0
153.0,-17.0,90.0,-11.0,72.0,1219.0,-77.0,73.0
153.0,-17.0,90.0,-11.0,72.0,1218.0,-40.0,73.0
152.0,-16.0,91.0,-10.0,72.0,1218.0,-163.0,74.0
151.0,-15.0,92.0,-9.0,72.0,1218.0,-551.0,75.0
152.0,-16.0,91.0,-10.0,71.0,1216.0,-578.0,72.0
152.0,-16.0,91.0,-10.0,71.0,1216.0,-623.0,72.0
152.0,-16.0,90.0,-11.0,71.0,1214.0,-705.0,72.0
152.0,-17.0,89.0,-11.0,70.0,1213.0,-681.0,72.0
153.0,-18.0,88.0,-13.0,70.0,1211.0,-529.0,71.0
153.0,-17.0,89.0,-11.0,72.0,1212.0,-636.0,72.0
151.0,-16.0,90.0,-11.0,71.0,1208.0,-1111.0,72.0
151.0,-16.0,89.0,-11.0,71.0,1207.0,-1044.0,72.0
151.0,-17.0,89.0,-12.0,70.0,1205.0,-915.0,71.0
152.0,-18.0,88.0,-13.0,70.0,1204.0,-679.0,70.0
153.0,-17.0,91.0,-11.0,73.0,1206.0,-712.0,73.0
155.0,-14.0,95.0,-10.0,74.0,1209.0,-804.0,76.0
156.0,-13.0,98.0,-9.0,75.0,1212.0,-750.0,78.0
157.0,-12.0,100.0,-8.0,77.0,1213.0,-817.0,80.0
159.0,-11.0,105.0,-5.0,79.0,1217.0,-1136.0,83.0
163.0,-13.0,107.0,-6.0,80.0,1218.0,-1083.0,84.0
166.0,-14.0,110.0,-6.0,83.0,1221.0,-899.0,87.0
168.0,-14.0,112.0,-5.0,84.0,1222.0,-826.0,88.0
171.0,-14.0,115.0,-6.0,86.0,1224.0,-704.0,90.0
174.0,-17.0,114.0,-7.0,87.0,1223.0,-461.0,90.0
174.0,-14.0,117.0,-5.0,88.0,1226.0,-519.0,93.0
173.0,-11.0,118.0,-4.0,88.0,1226.0,-645.0,94.0
174.0,-12.0,120.0,-4.0,89.0,1226.0,-622.0,94.0
174.0,-13.0,121.0,-4.0,89.0,1227.0,-725.0,95.0
173.0,-12.0,122.0,-2.0,90.0,1227.0,-1100.0,97.0
174.0,-12.0,121.0,-4.0,87.0,1225.0,-1128.0,95.0
174.0,-13.0,120.0,-4.0,88.0,1224.0,-931.0,94.0
174.0,-13.0,120.0,-5.0,88.0,1223.0,-887.0,94.0
174.0,-16.0,118.0,-6.0,88.0,1220.0,-833.0,93.0
175.0,-20.0,115.0,-7.0,87.0,1218.0,-585.0,91.0
175.0,-19.0,117.0,-6.0,89.0,1218.0,-478.0,93.0
174.0,-18.0,117.0,-5.0,89.0,1218.0,-599.0,93.0
172.0,-16.0,116.0,-5.0,87.0,1216.0,-628.0,92.0
171.0,-15.0,116.0,-5.0,87.0,1215.0,-664.0,92.0
170.0,-14.0,117.0,-3.0,87.0,1215.0,-911.0,93.0
169.0,-14.0,115.0,-4.0,85.0,1213.0,-841.0,91.0
168.0,-16.0,112.0,-6.0,84.0,1209.0,-682.0,89.0
168.0,-17.0,110.0,-6.0,83.0,1206.0,-769.0,87.0
167.0,-17.0,109.0,-7.0,83.0,1205.0,-661.0,87.0
166.0,-20.0,106.0,-9.0,81.0,1201.0,-245.0,84.0
165.0,-20.0,105.0,-8.0,82.0,1200.0,-8.0,84.0
163.0,-17.0,104.0,-7.0,80.0,1198.0,-2.0,83.0
161.0,-17.0,103.0,-7.0,79.0,1196.0,7.0,82.0
160.0,-18.0,101.0,-8.0,78.0,1193.0,-46.0,81.0
157.0,-16.0,101.0,-7.0,78.0,1192.0,-221.0,81.0
155.0,-14.0,98.0,-8.0,74.0,1189.0,-134.0,78.0
154.0,-15.0,96.0,-8.0,74.0,1186.0,56.0,77.0
152.0,-16.0,93.0,-9.0,72.0,1183.0,74.0,74.0
150.0,-14.0,91.0,-10.0,70.0,1180.0,105.0,72.0
150.0,-16.0,88.0,-12.0,69.0,1176.0,301.0,70.0
148.0,-17.0,86.0,-12.0,70.0,1174.0,332.0,70.0
148.0,-16.0,86.0,-11.0,69.0,1173.0,172.0,70.0
147.0,-16.0,86.0,-10.0,69.0,1172.0,190.0,70.0
146.0,-16.0,87.0,-10.0,69.0,1172.0,223.0,70.0
145.0,-15.0,88.0,-8.0,69.0,1173.0,0.0,71.0
145.0,-15.0,87.0,-10.0,67.0,1171.0,-14.0,70.0
146.0,-15.0,86.0,-10.0,68.0,1170.0,182.0,69.0
146.0,-15.0,86.0,-11.0,68.0,1169.0,211.0,69.0
146.0,-16.0,86.0,-11.0,67.0,1168.0,254.0,69.0
147.0,-17.0,84.0,-13.0,67.0,1166.0,477.0,68.0
147.0,-17.0,85.0,-11.0,69.0,1166.0,394.0,69.0
146.0,-16.0,86.0,-11.0,69.0,1166.0,-8.0,70.0
146.0,-16.0,86.0,-10.0,69.0,1165.0,-170.0,70.0
146.0,-16.0,86.0,-10.0,69.0,1165.0,-70.0,70.0
144.0,-15.0,88.0,-8.0,69.0,1166.0,-167.0,71.0
144.0,-15.0,87.0,-10.0,67.0,1163.0,-150.0,69.0
145.0,-15.0,86.0,-10.0,68.0,1162.0,54.0,69.0
145.0,-16.0,86.0,-11.0,68.0,1162.0,90.0,69.0
146.0,-16.0,85.0,-11.0,67.0,1160.0,128.0,68.0
146.0,-17.0,83.0,-13.0,67.0,1158.0,337.0,67.0
146.0,-17.0,84.0,-11.0,69.0,1159.0,401.0,69.0
146.0,-16.0,85.0,-11.0,69.0,1159.0,240.0,69.0
146.0,-16.0,85.0,-11.0,68.0,1158.0,258.0,69.0
145.0,-16.0,86.0,-10.0,69.0,1158.0,200.0,69.0
144.0,-14.0,87.0,-9.0,69.0,1158.0,-20.0,71.0
143.0,-14.0,86.0,-10.0,66.0,1156.0,-22.0,69.0
144.0,-15.0,86.0,-10.0,67.0,1155.0,104.0,68.0
145.0,-16.0,85.0,-10.0,67.0,1155.0,67.0,68.0
145.0,-16.0,85.0,-11.0,67.0,1153.0,80.0,68.0
146.0,-17.0,83.0,-13.0,66.0,1151.0,277.0,66.0
146.0,-17.0,84.0,-11.0,68.0,1152.0,349.0,68.0
145.0,-16.0,85.0,-11.0,68.0,1152.0,167.0,69.0
144.0,-16.0,85.0,-11.0,68.0,1151.0,70.0,68.0
144.0,-16.0,85.0,-10.0,68.0,1150.0,-1.0,69.0
143.0,-15.0,86.0,-8.0,68.0,1151.0,-241.0,70.0
143.0,-15.0,85.0,-9.0,66.0,1149.0,-299.0,69.0
142.0,-15.0,87.0,-10.0,65.0,1145.0,-120.0,66.0
137.0,-17.0,94.0,-8.0,61.0,1137.0,-181.0,61.0
132.0,-21.0,101.0,-7.0,57.0,1129.0,-269.0,55.0
127.0,-24.0,107.0,-7.0,53.0,1120.0,-187.0,49.0
123.0,-24.0,113.0,-5.0,52.0,1115.0,-165.0,48.0
123.0,-16.0,109.0,-5.0,52.0,1120.0,-360.0,50.0
128.0,-8.0,98.0,-9.0,57.0,1130.0,-325.0,57.0
138.0,4.0,79.0,-14.0,65.0,1148.0,-246.0,69.0
154.0,30.0,46.0,-22.0,81.0,1183.0,-352.0,91.0
177.0,54.0,5.0,-34.0,97.0,1221.0,-334.0,115.0
203.0,76.0,-37.0,-45.0,117.0,1261.0,-93.0,142.0
229.0,97.0,-79.0,-57.0,138.0,1302.0,-67.0,170.0
255.0,119.0,-122.0,-68.0,158.0,1342.0,-32.0,197.0
281.0,139.0,-166.0,-81.0,177.0,1382.0,227.0,223.0
307.0,159.0,-207.0,-91.0,199.0,1423.0,379.0,251.0
332.0,175.0,-245.0,-99.0,218.0,1461.0,122.0,278.0
357.0,181.0,-278.0,-106.0,237.0,1493.0,38.0,302.0
379.0,180.0,-304.0,-111.0,253.0,1518.0,44.0,322.0
394.0,184.0,-323.0,-114.0,266.0,1539.0,-102.0,337.0
405.0,187.0,-338.0,-118.0,272.0,1552.0,-137.0,346.0
412.0,182.0,-344.0,-119.0,276.0,1556.0,64.0,350.0
415.0,170.0,-341.0,-117.0,278.0,1552.0,81.0,350.0
412.0,160.0,-334.0,-115.0,275.0,1542.0,125.0,345.0
405.0,151.0,-321.0,-112.0,267.0,1526.0,284.0,334.0
393.0,141.0,-301.0,-107.0,261.0,1508.0,317.0,323.0
379.0,128.0,-277.0,-99.0,249.0,1485.0,93.0,309.0
362.0,110.0,-246.0,-91.0,235.0,1454.0,56.0,289.0
340.0,89.0,-209.0,-81.0,218.0,1417.0,28.0,266.0
314.0,69.0,-167.0,-69.0,199.0,1378.0,-208.0,241.0
288.0,44.0,-123.0,-57.0,176.0,1333.0,-383.0,211.0
263.0,16.0,-78.0,-46.0,156.0,1286.0,-192.0,181.0
237.0,-7.0,-35.0,-34.0,136.0,1243.0,-176.0,153.0
211.0,-25.0,4.0,-24.0,116.0,1202.0,-155.0,126.0
185.0,-45.0,44.0,-16.0,95.0,1160.0,4.0,98.0
158.0,-61.0,76.0,-11.0,75.0,1119.0,136.0,70.0
129.0,-83.0,86.0,-10.0,52.0,1073.0,-85.0,41.0
102.0,-99.0,87.0,-9.0,32.0,1032.0,-128.0,14.0
84.0,-90.0,87.0,-9.0,20.0,1016.0,-219.0,1.0
79.0,-71.0,89.0,-7.0,18.0,1020.0,-464.0,2.0
87.0,-60.0,88.0,-8.0,23.0,1035.0,-558.0,10.0
101.0,-48.0,87.0,-9.0,34.0,1057.0,-218.0,25.0
115.0,-37.0,87.0,-9.0,46.0,1079.0,-58.0,40.0
127.0,-28.0,87.0,-9.0,55.0,1096.0,38.0,52.0
136.0,-20.0,85.0,-11.0,61.0,1108.0,204.0,60.0
138.0,-18.0,85.0,-11.0,64.0,1112.0,264.0,63.0
138.0,-18.0,86.0,-9.0,64.0,1112.0,9.0,64.0
138.0,-18.0,86.0,-9.0,64.0,1111.0,83.0,64.0
137.0,-17.0,86.0,-9.0,64.0,1111.0,154.0,64.0
136.0,-16.0,88.0,-7.0,64.0,1111.0,-142.0,65.0
136.0,-16.0,88.0,-8.0,62.0,1110.0,-368.0,64.0
136.0,-16.0,87.0,-9.0,62.0,1108.0,-198.0,64.0
136.0,-17.0,86.0,-9.0,63.0,1107.0,-161.0,63.0
137.0,-17.0,86.0,-9.0,62.0,1107.0,-138.0,63.0
137.0,-18.0,84.0,-11.0,62.0,1105.0,-10.0,61.0
137.0,-18.0,85.0,-10.0,63.0,1105.0,146.0,63.0
137.0,-18.0,86.0,-9.0,64.0,1105.0,36.0,64.0
136.0,-17.0,86.0,-9.0,63.0,1104.0,60.0,63.0
136.0,-17.0,86.0,-9.0,63.0,1104.0,105.0,64.0
135.0,-16.0,88.0,-7.0,64.0,1104.0,-16.0,65.0
134.0,-15.0,87.0,-8.0,62.0,1103.0,-143.0,64.0
135.0,-16.0,86.0,-9.0,62.0,1102.0,53.0,63.0
136.0,-17.0,86.0,-9.0,63.0,1101.0,92.0,63.0
136.0,-17.0,85.0,-9.0,62.0,1100.0,73.0,62.0
136.0,-18.0,84.0,-11.0,61.0,1098.0,147.0,61.0
137.0,-18.0,84.0,-11.0,62.0,1098.0,253.0,62.0
136.0,-17.0,85.0,-9.0,63.0,1098.0,42.0,64.0
135.0,-17.0,85.0,-9.0,63.0,1097.0,55.0,63.0
136.0,-17.0,85.0,-9.0,63.0,1097.0,119.0,64.0
134.0,-15.0,87.0,-7.0,63.0,1097.0,-24.0,64.0
134.0,-15.0,87.0,-7.0,61.0,1096.0,-286.0,63.0
135.0,-16.0,85.0,-9.0,61.0,1095.0,-108.0,62.0
135.0,-17.0,85.0,-9.0,62.0,1094.0,-87.0,62.0
136.0,-17.0,85.0,-9.0,62.0,1093.0,-194.0,62.0
136.0,-18.0,84.0,-11.0,61.0,1091.0,-137.0,61.0
136.0,-18.0,84.0,-10.0,63.0,1091.0,15.0,62.0
135.0,-17.0,85.0,-9.0,63.0,1091.0,-234.0,63.0
135.0,-17.0,85.0,-9.0,62.0,1090.0,-209.0,63.0
135.0,-17.0,85.0,-9.0,62.0,1090.0,-72.0,63.0
133.0,-16.0,86.0,-7.0,63.0,1090.0,-141.0,64.0
133.0,-15.0,86.0,-7.0,61.0,1089.0,-311.0,63.0
134.0,-16.0,85.0,-9.0,61.0,1087.0,-134.0,62.0
134.0,-16.0,85.0,-9.0,62.0,1087.0,-134.0,62.0
134.0,-17.0,84.0,-9.0,61.0,1086.0,-153.0,62.0
135.0,-17.0,84.0,-10.0,62.0,1085.0,-18.0,61.0
137.0,-17.0,86.0,-10.0,64.0,1087.0,172.0,64.0
137.0,-15.0,88.0,-8.0,65.0,1089.0,-28.0,66.0
137.0,-14.0,90.0,-8.0,65.0,1089.0,-135.0,66.0
138.0,-13.0,92.0,-7.0,66.0,1091.0,-145.0,68.0
139.0,-13.0,95.0,-5.0,68.0,1093.0,-229.0,70.0
140.0,-14.0,96.0,-5.0,67.0,1093.0,-403.0,70.0
141.0,-15.0,95.0,-6.0,67.0,1091.0,-215.0,70.0
141.0,-15.0,95.0,-6.0,68.0,1091.0,-194.0,70.0
142.0,-15.0,95.0,-6.0,68.0,1091.0,-143.0,70.0
144.0,-15.0,97.0,-7.0,68.0,1092.0,255.0,70.0
146.0,-15.0,97.0,-7.0,70.0,1092.0,486.0,72.0
145.0,-15.0,99.0,-6.0,71.0,1092.0,27.0,73.0
145.0,-15.0,99.0,-6.0,71.0,1092.0,-166.0,73.0
146.0,-16.0,100.0,-6.0,72.0,1093.0,-254.0,74.0
146.0,-14.0,102.0,-4.0,73.0,1094.0,-398.0,76.0
145.0,-11.0,104.0,-2.0,72.0,1095.0,-520.0,76.0
147.0,-12.0,104.0,-4.0,72.0,1094.0,-271.0,76.0
149.0,-14.0,105.0,-4.0,73.0,1094.0,-219.0,76.0
149.0,-14.0,105.0,-4.0,73.0,1093.0,-245.0,76.0
151.0,-14.0,105.0,-5.0,73.0,1094.0,-181.0,77.0
154.0,-14.0,109.0,-5.0,77.0,1097.0,0.0,80.0
156.0,-11.0,114.0,-2.0,80.0,1102.0,-192.0,84.0
158.0,-9.0,119.0,-1.0,81.0,1105.0,-274.0,87.0
159.0,-7.0,122.0,0.0,82.0,1108.0,-317.0,88.0
160.0,-6.0,125.0,1.0,85.0,1110.0,-431.0,91.0
162.0,-3.0,130.0,2.0,85.0,1113.0,-588.0,93.0
166.0,-2.0,132.0,2.0,86.0,1116.0,-394.0,95.0
169.0,0.0,137.0,3.0,89.0,1119.0,-285.0,97.0
172.0,0.0,141.0,4.0,91.0,1123.0,-128.0,100.0
175.0,0.0,143.0,3.0,92.0,1124.0,39.0,102.0
179.0,-1.0,145.0,3.0,96.0,1127.0,251.0,105.0
180.0,1.0,151.0,6.0,98.0,1132.0,-81.0,109.0
183.0,3.0,156.0,7.0,100.0,1135.0,-360.0,112.0
185.0,5.0,160.0,8.0,102.0,1139.0,-326.0,115.0
187.0,8.0,166.0,11.0,105.0,1144.0,-258.0,118.0
189.0,8.0,169.0,12.0,106.0,1146.0,-267.0,120.0
193.0,7.0,171.0,11.0,107.0,1147.0,102.0,121.0
194.0,7.0,173.0,11.0,109.0,1149.0,251.0,123.0
196.0,8.0,175.0,12.0,110.0,1150.0,263.0,124.0
198.0,8.0,175.0,11.0,110.0,1150.0,362.0,124.0
200.0,5.0,176.0,10.0,112.0,1150.0,519.0,125.0
200.0,6.0,177.0,12.0,114.0,1151.0,304.0,128.0
200.0,6.0,178.0,12.0,113.0,1151.0,232.0,128.0
201.0,7.0,181.0,13.0,114.0,1153.0,227.0,129.0
201.0,8.0,183.0,14.0,115.0,1155.0,157.0,131.0
200.0,10.0,184.0,15.0,114.0,1154.0,-10.0,131.0
200.0,9.0,181.0,14.0,113.0,1151.0,113.0,129.0
199.0,7.0,178.0,12.0,112.0,1148.0,60.0,127.0
199.0,5.0,177.0,12.0,111.0,1146.0,40.0,126.0
199.0,2.0,174.0,10.0,111.0,1143.0,247.0,124.0
198.0,1.0,171.0,9.0,110.0,1139.0,612.0,123.0
195.0,0.0,170.0,10.0,110.0,1138.0,629.0,123.0
193.0,0.0,168.0,10.0,108.0,1135.0,665.0,121.0
192.0,0.0,166.0,9.0,107.0,1132.0,686.0,120.0
189.0,0.0,164.0,10.0,106.0,1130.0,565.0,119.0
187.0,-2.0,162.0,9.0,104.0,1127.0,266.0,117.0
185.0,-4.0,157.0,7.0,101.0,1121.0,419.0,113.0
183.0,-3.0,154.0,6.0,100.0,1118.0,509.0,110.0
181.0,-5.0,150.0,5.0,98.0,1113.0,476.0,108.0
180.0,-9.0,145.0,3.0,96.0,1108.0,517.0,105.0
178.0,-13.0,140.0,1.0,95.0,1103.0,635.0,103.0
175.0,-15.0,138.0,1.0,95.0,1100.0,414.0,102.0
174.0,-18.0,134.0,0.0,93.0,1096.0,363.0,100.0
171.0,-20.0,130.0,0.0,91.0,1091.0,405.0,97.0
168.0,-19.0,128.0,0.0,89.0,1088.0,366.0,95.0
164.0,-16.0,126.0,1.0,86.0,1086.0,189.0,93.0
161.0,-15.0,122.0,0.0,83.0,1081.0,389.0,89.0
160.0,-17.0,119.0,-1.0,83.0,1078.0,494.0,88.0
159.0,-18.0,117.0,-2.0,81.0,1075.0,495.0,86.0
157.0,-19.0,114.0,-3.0,79.0,1071.0,503.0,84.0
156.0,-19.0,111.0,-4.0,79.0,1069.0,650.0,82.0
153.0,-17.0,110.0,-3.0,79.0,1067.0,422.0,82.0
152.0,-18.0,107.0,-4.0,76.0,1064.0,275.0,80.0
150.0,-18.0,107.0,-4.0,76.0,1062.0,246.0,80.0
148.0,-17.0,106.0,-3.0,75.0,1060.0,232.0,79.0
145.0,-17.0,104.0,-3.0,73.0,1058.0,57.0,77.0
144.0,-16.0,101.0,-4.0,71.0,1055.0,246.0,74.0
143.0,-16.0,100.0,-4.0,71.0,1053.0,376.0,74.0
142.0,-17.0,97.0,-5.0,70.0,1050.0,392.0,72.0
141.0,-17.0,94.0,-7.0,68.0,1047.0,506.0,69.0
141.0,-18.0,92.0,-8.0,68.0,1045.0,750.0,68.0
139.0,-20.0,92.0,-7.0,68.0,1043.0,584.0,69.0
138.0,-19.0,91.0,-7.0,66.0,1041.0,443.0,68.0
136.0,-18.0,90.0,-7.0,66.0,1040.0,415.0,67.0
133.0,-16.0,90.0,-6.0,65.0,1039.0,282.0,67.0
130.0,-15.0,87.0,-6.0,62.0,1036.0,6.0,65.0
129.0,-15.0,84.0,-7.0,60.0,1032.0,178.0,61.0
128.0,-15.0,82.0,-8.0,60.0,1030.0,217.0,60.0
127.0,-14.0,81.0,-8.0,59.0,1028.0,110.0,59.0
128.0,-14.0,81.0,-9.0,59.0,1027.0,110.0,59.0
129.0,-16.0,79.0,-10.0,59.0,1025.0,-83.0,58.0
126.0,-16.0,78.0,-9.0,59.0,1023.0,-62.0,58.0
125.0,-16.0,77.0,-9.0,57.0,1022.0,220.0,57.0
125.0,-16.0,77.0,-9.0,56.0,1021.0,410.0,57.0
124.0,-16.0,78.0,-8.0,57.0,1021.0,423.0,58.0
122.0,-15.0,79.0,-7.0,57.0,1021.0,148.0,58.0
123.0,-15.0,77.0,-8.0,55.0,1019.0,199.0,56.0
123.0,-16.0,77.0,-9.0,56.0,1019.0,329.0,57.0
124.0,-16.0,77.0,-9.0,56.0,1018.0,338.0,56.0
124.0,-17.0,76.0,-10.0,56.0,1016.0,383.0,56.0
125.0,-18.0,74.0,-11.0,56.0,1015.0,632.0,55.0
125.0,-17.0,76.0,-9.0,57.0,1015.0,494.0,57.0
124.0,-16.0,76.0,-9.0,56.0,1015.0,301.0,57.0
124.0,-16.0,77.0,-9.0,57.0,1014.0,226.0,57.0
124.0,-16.0,77.0,-8.0,57.0,1015.0,162.0,58.0
122.0,-14.0,79.0,-7.0,57.0,1015.0,71.0,58.0
122.0,-15.0,77.0,-8.0,55.0,1012.0,393.0,56.0
123.0,-15.0,76.0,-9.0,56.0,1012.0,599.0,56.0
123.0,-16.0,76.0,-9.0,56.0,1011.0,633.0,56.0
123.0,-16.0,75.0,-10.0,55.0,1010.0,707.0,55.0
124.0,-17.0,74.0,-11.0,55.0,1008.0,979.0,54.0
123.0,-17.0,76.0,-10.0,57.0,1009.0,940.0,57.0
123.0,-16.0,76.0,-9.0,57.0,1008.0,915.0,56.0
123.0,-15.0,76.0,-9.0,56.0,1008.0,1013.0,56.0
122.0,-15.0,77.0,-8.0,57.0,1008.0,894.0,57.0
121.0,-14.0,78.0,-7.0,56.0,1009.0,553.0,58.0
122.0,-15.0,76.0,-8.0,54.0,1006.0,665.0,56.0
122.0,-15.0,76.0,-8.0,55.0,1006.0,829.0,56.0
122.0,-16.0,75.0,-9.0,55.0,1004.0,849.0,55.0
122.0,-16.0,75.0,-9.0,55.0,1004.0,934.0,55.0
124.0,-17.0,74.0,-11.0,55.0,1002.0,1196.0,54.0
123.0,-17.0,75.0,-9.0,57.0,1003.0,1068.0,56.0
123.0,-16.0,75.0,-9.0,56.0,1002.0,894.0,56.0
122.0,-16.0,75.0,-9.0,56.0,1002.0,870.0,56.0
122.0,-15.0,76.0,-8.0,57.0,1002.0,768.0,57.0
120.0,-14.0,78.0,-7.0,56.0,1002.0,467.0,57.0
121.0,-15.0,76.0,-8.0,54.0,1000.0,535.0,55.0
121.0,-15.0,76.0,-9.0,55.0,999.0,659.0,55.0
122.0,-15.0,76.0,-9.0,55.0,999.0,661.0,55.0
122.0,-16.0,75.0,-9.0,55.0,998.0,707.0,55.0
123.0,-17.0,73.0,-11.0,55.0,996.0,931.0,54.0
123.0,-17.0,74.0,-9.0,56.0,997.0,803.0,56.0
122.0,-16.0,75.0,-9.0,56.0,996.0,581.0,56.0
121.0,-16.0,75.0,-9.0,56.0,996.0,516.0,56.0
120.0,-15.0,76.0,-8.0,56.0,996.0,401.0,57.0
120.0,-14.0,77.0,-7.0,56.0,996.0,117.0,57.0
120.0,-15.0,76.0,-8.0,54.0,994.0,212.0,55.0
121.0,-15.0,75.0,-8.0,55.0,993.0,349.0,55.0
121.0,-16.0,75.0,-8.0,55.0,992.0,315.0,55.0
121.0,-16.0,74.0,-9.0,54.0,991.0,331.0,54.0
122.0,-17.0,73.0,-11.0,54.0,990.0,547.0,54.0
121.0,-16.0,74.0,-9.0,56.0,990.0,605.0,56.0
121.0,-16.0,75.0,-9.0,56.0,990.0,646.0,55.0
121.0,-16.0,74.0,-9.0,55.0,989.0,797.0,55.0
120.0,-15.0,75.0,-8.0,55.0,989.0,823.0,56.0
119.0,-14.0,77.0,-6.0,56.0,990.0,568.0,57.0
119.0,-15.0,75.0,-8.0,53.0,988.0,610.0,54.0
120.0,-15.0,75.0,-8.0,54.0,987.0,833.0,55.0
120.0,-16.0,75.0,-8.0,55.0,987.0,1075.0,55.0
120.0,-16.0,74.0,-9.0,54.0,986.0,1268.0,54.0
121.0,-17.0,73.0,-11.0,54.0,983.0,1538.0,53.0
121.0,-17.0,74.0,-10.0,56.0,984.0,1536.0,55.0
120.0,-16.0,74.0,-9.0,55.0,984.0,1431.0,55.0
120.0,-15.0,74.0,-9.0,55.0,983.0,1513.0,55.0
119.0,-15.0,74.0,-8.0,55.0,983.0,1516.0,56.0
118.0,-14.0,76.0,-6.0,55.0,984.0,1234.0,56.0
118.0,-14.0,74.0,-8.0,53.0,981.0,1234.0,54.0
119.0,-15.0,74.0,-8.0,54.0,981.0,1353.0,54.0
119.0,-15.0,74.0,-9.0,54.0,980.0,1323.0,54.0
119.0,-15.0,73.0,-9.0,54.0,979.0,1341.0,54.0
120.0,-17.0,71.0,-11.0,54.0,977.0,1572.0,53.0
120.0,-17.0,73.0,-9.0,56.0,978.0,1575.0,55.0
120.0,-16.0,73.0,-9.0,55.0,977.0,1402.0,55.0
119.0,-16.0,73.0,-9.0,55.0,977.0,1371.0,55.0
119.0,-15.0,74.0,-8.0,55.0,977.0,1325.0,55.0
118.0,-14.0,75.0,-6.0,55.0,977.0,1095.0,56.0
118.0,-14.0,74.0,-7.0,53.0,975.0,1134.0,54.0
118.0,-15.0,74.0,-8.0,54.0,975.0,1332.0,54.0
119.0,-15.0,73.0,-8.0,54.0,974.0,1354.0,54.0
119.0,-15.0,73.0,-9.0,53.0,973.0,1375.0,53.0
120.0,-16.0,71.0,-10.0,53.0,971.0,1623.0,52.0
120.0,-16.0,72.0,-10.0,55.0,972.0,1635.0,54.0
119.0,-16.0,73.0,-9.0,55.0,971.0,1464.0,55.0
118.0,-15.0,73.0,-8.0,54.0,971.0,1504.0,54.0
118.0,-15.0,73.0,-8.0,55.0,971.0,1495.0,55.0
117.0,-14.0,75.0,-6.0,55.0,971.0,1224.0,56.0
117.0,-14.0,74.0,-8.0,53.0,969.0,1180.0,54.0
117.0,-15.0,73.0,-8.0,53.0,968.0,1313.0,54.0
118.0,-15.0,73.0,-8.0,54.0,968.0,1268.0,54.0
118.0,-15.0,72.0,-9.0,53.0,967.0,1290.0,53.0
119.0,-17.0,71.0,-10.0,53.0,965.0,1541.0,52.0
119.0,-16.0,72.0,-9.0,55.0,965.0,1597.0,54.0
118.0,-15.0,73.0,-9.0,54.0,965.0,1435.0,54.0
118.0,-15.0,73.0,-8.0,54.0,965.0,1471.0,54.0
117.0,-15.0,73.0,-8.0,54.0,964.0,1442.0,54.0
116.0,-14.0,75.0,-7.0,54.0,965.0,1187.0,56.0
116.0,-14.0,74.0,-7.0,52.0,963.0,1187.0,53.0
116.0,-15.0,73.0,-8.0,53.0,962.0,1411.0,53.0
117.0,-15.0,73.0,-8.0,54.0,962.0,1430.0,53.0
117.0,-15.0,72.0,-9.0,53.0,961.0,1430.0,52.0
118.0,-17.0,70.0,-11.0,52.0,959.0,1663.0,52.0
118.0,-16.0,72.0,-10.0,55.0,960.0,1744.0,54.0
117.0,-16.0,72.0,-9.0,54.0,960.0,1596.0,54.0
117.0,-15.0,72.0,-9.0,54.0,959.0,1592.0,54.0
117.0,-15.0,72.0,-8.0,54.0,958.0,1476.0,54.0
115.0,-13.0,74.0,-6.0,54.0,959.0,1126.0,55.0
116.0,-14.0,73.0,-7.0,52.0,957.0,992.0,53.0
116.0,-15.0,72.0,-8.0,53.0,956.0,1101.0,53.0
116.0,-15.0,72.0,-8.0,53.0,956.0,1028.0,53.0
116.0,-15.0,72.0,-9.0,53.0,955.0,1004.0,52.0
117.0,-16.0,70.0,-10.0,52.0,953.0,1171.0,51.0
117.0,-16.0,71.0,-9.0,54.0,953.0,1219.0,53.0
117.0,-16.0,72.0,-9.0,54.0,953.0,989.0,53.0
116.0,-15.0,72.0,-9.0,53.0,953.0,905.0,53.0
116.0,-15.0,72.0,-8.0,53.0,953.0,798.0,54.0
115.0,-14.0,74.0,-6.0,54.0,953.0,588.0,55.0
115.0,-14.0,73.0,-7.0,52.0,951.0,627.0,53.0
115.0,-14.0,72.0,-8.0,52.0,950.0,872.0,53.0
115.0,-15.0,72.0,-8.0,53.0,950.0,913.0,53.0
115.0,-15.0,71.0,-9.0,52.0,949.0,929.0,52.0
117.0,-17.0,70.0,-10.0,52.0,947.0,1135.0,51.0
116.0,-17.0,71.0,-9.0,54.0,947.0,1226.0,52.0
116.0,-16.0,71.0,-8.0,54.0,947.0,1021.0,53.0
116.0,-15.0,71.0,-8.0,53.0,946.0,989.0,53.0
115.0,-15.0,71.0,-8.0,53.0,946.0,973.0,53.0
114.0,-14.0,73.0,-7.0,53.0,947.0,760.0,55.0
114.0,-14.0,72.0,-8.0,51.0,945.0,748.0,52.0
115.0,-14.0,71.0,-8.0,51.0,944.0,1015.0,52.0
115.0,-15.0,71.0,-8.0,52.0,943.0,975.0,52.0
115.0,-15.0,71.0,-9.0,51.0,943.0,991.0,52.0
116.0,-16.0,69.0,-10.0,51.0,941.0,1252.0,51.0
116.0,-16.0,70.0,-10.0,53.0,941.0,1412.0,52.0
115.0,-15.0,71.0,-8.0,53.0,941.0,1177.0,53.0
114.0,-15.0,71.0,-8.0,52.0,941.0,717.0,53.0
114.0,-15.0,71.0,-8.0,53.0,940.0,297.0,53.0
113.0,-14.0,73.0,-6.0,53.0,941.0,22.0,54.0
113.0,-14.0,72.0,-7.0,51.0,940.0,273.0,52.0
114.0,-14.0,71.0,-8.0,51.0,938.0,755.0,52.0
114.0,-14.0,71.0,-8.0,52.0,938.0,894.0,52.0
114.0,-15.0,71.0,-8.0,51.0,937.0,888.0,52.0
115.0,-16.0,69.0,-10.0,51.0,935.0,714.0,50.0
115.0,-16.0,70.0,-9.0,53.0,935.0,324.0,52.0
114.0,-16.0,71.0,-8.0,52.0,936.0,-155.0,52.0
114.0,-15.0,70.0,-8.0,52.0,935.0,-298.0,52.0
114.0,-15.0,71.0,-8.0,52.0,934.0,-358.0,52.0
113.0,-13.0,72.0,-6.0,53.0,935.0,-611.0,54.0
112.0,-13.0,71.0,-7.0,51.0,934.0,-782.0,52.0
113.0,-14.0,71.0,-8.0,51.0,933.0,-641.0,51.0
113.0,-15.0,71.0,-8.0,52.0,932.0,-658.0,51.0
113.0,-14.0,70.0,-9.0,51.0,931.0,-512.0,51.0
114.0,-15.0,68.0,-10.0,51.0,929.0,71.0,50.0
114.0,-16.0,69.0,-10.0,52.0,929.0,237.0,51.0
114.0,-15.0,70.0,-9.0,52.0,930.0,-123.0,52.0
113.0,-15.0,70.0,-8.0,52.0,929.0,-195.0,52.0
113.0,-15.0,70.0,-7.0,52.0,929.0,-196.0,52.0
112.0,-13.0,72.0,-6.0,52.0,929.0,-333.0,53.0
111.0,-13.0,71.0,-7.0,50.0,928.0,-393.0,52.0
112.0,-14.0,70.0,-8.0,51.0,926.0,-174.0,51.0
112.0,-14.0,70.0,-8.0,51.0,926.0,-189.0,51.0
113.0,-14.0,70.0,-8.0,51.0,925.0,-240.0,51.0
114.0,-16.0,68.0,-10.0,50.0,923.0,-102.0,50.0
114.0,-16.0,68.0,-10.0,52.0,923.0,25.0,51.0
113.0,-15.0,70.0,-8.0,52.0,924.0,-269.0,52.0
112.0,-15.0,69.0,-8.0,51.0,923.0,-383.0,52.0
112.0,-15.0,70.0,-8.0,52.0,923.0,-383.0,52.0
111.0,-13.0,71.0,-6.0,52.0,924.0,-553.0,53.0
111.0,-13.0,71.0,-6.0,50.0,922.0,-670.0,52.0
111.0,-13.0,70.0,-8.0,50.0,921.0,-864.0,51.0
112.0,-14.0,70.0,-8.0,51.0,920.0,-927.0,51.0
112.0,-14.0,69.0,-8.0,51.0,919.0,-464.0,51.0
113.0,-16.0,68.0,-10.0,50.0,918.0,275.0,49.0
113.0,-16.0,68.0,-9.0,52.0,918.0,764.0,51.0
112.0,-15.0,69.0,-8.0,52.0,918.0,751.0,51.0
112.0,-15.0,69.0,-8.0,51.0,918.0,830.0,51.0
112.0,-15.0,69.0,-8.0,51.0,917.0,927.0,51.0
110.0,-13.0,71.0,-6.0,52.0,918.0,820.0,53.0
110.0,-13.0,70.0,-6.0,50.0,916.0,738.0,51.0
111.0,-14.0,69.0,-8.0,50.0,915.0,1008.0,50.0
111.0,-14.0,69.0,-8.0,50.0,915.0,1075.0,50.0
111.0,-15.0,69.0,-8.0,50.0,914.0,1090.0,50.0
112.0,-15.0,67.0,-10.0,50.0,912.0,1213.0,49.0
113.0,-16.0,67.0,-10.0,52.0,912.0,1316.0,50.0
113.0,-14.0,70.0,-8.0,53.0,914.0,1066.0,52.0
115.0,-12.0,74.0,-7.0,54.0,917.0,1100.0,55.0
117.0,-11.0,77.0,-6.0,56.0,920.0,1151.0,57.0
117.0,-9.0,81.0,-3.0,58.0,923.0,1012.0,60.0
119.0,-9.0,84.0,-3.0,58.0,925.0,837.0,61.0
124.0,-11.0,86.0,-4.0,60.0,927.0,984.0,63.0
127.0,-12.0,90.0,-4.0,63.0,929.0,961.0,65.0
129.0,-12.0,92.0,-3.0,64.0,931.0,896.0,66.0
132.0,-13.0,93.0,-4.0,65.0,932.0,976.0,68.0
134.0,-14.0,94.0,-4.0,67.0,933.0,1156.0,69.0
133.0,-11.0,97.0,-3.0,68.0,935.0,989.0,72.0
133.0,-9.0,98.0,-2.0,68.0,936.0,1020.0,72.0
134.0,-10.0,99.0,-1.0,69.0,936.0,1125.0,73.0
135.0,-11.0,102.0,0.0,70.0,937.0,1009.0,75.0
134.0,-10.0,101.0,0.0,69.0,936.0,729.0,74.0
134.0,-11.0,100.0,-1.0,68.0,935.0,888.0,73.0
134.0,-11.0,100.0,-2.0,68.0,934.0,896.0,73.0
135.0,-12.0,99.0,-2.0,68.0,933.0,874.0,73.0
136.0,-15.0,97.0,-4.0,68.0,930.0,1002.0,71.0
136.0,-18.0,96.0,-4.0,69.0,929.0,1218.0,71.0
135.0,-17.0,97.0,-3.0,69.0,929.0,1045.0,72.0
134.0,-16.0,96.0,-3.0,68.0,928.0,982.0,72.0
132.0,-14.0,96.0,-3.0,67.0,927.0,979.0,71.0
131.0,-12.0,97.0,-1.0,67.0,927.0,825.0,72.0
130.0,-12.0,97.0,-1.0,66.0,926.0,613.0,71.0
130.0,-13.0,95.0,-2.0,65.0,924.0,868.0,69.0
129.0,-14.0,92.0,-3.0,65.0,921.0,998.0,67.0
128.0,-15.0,90.0,-4.0,64.0,919.0,1045.0,66.0
128.0,-16.0,88.0,-5.0,63.0,917.0,1152.0,65.0
127.0,-18.0,86.0,-6.0,63.0,914.0,1346.0,64.0
125.0,-17.0,85.0,-5.0,63.0,913.0,1114.0,64.0
123.0,-15.0,84.0,-4.0,61.0,911.0,1010.0,63.0
122.0,-15.0,83.0,-4.0,60.0,909.0,1013.0,62.0
119.0,-14.0,82.0,-4.0,59.0,907.0,894.0,61.0
117.0,-13.0,80.0,-4.0,56.0,905.0,690.0,59.0
116.0,-13.0,78.0,-5.0,54.0,902.0,901.0,57.0
115.0,-13.0,76.0,-6.0,55.0,900.0,939.0,56.0
113.0,-14.0,73.0,-7.0,53.0,897.0,950.0,54.0
111.0,-13.0,70.0,-8.0,51.0,893.0,1129.0,51.0
111.0,-14.0,68.0,-9.0,51.0,891.0,1385.0,50.0
109.0,-15.0,67.0,-8.0,50.0,890.0,1192.0,50.0
108.0,-14.0,66.0,-8.0,49.0,889.0,1101.0,49.0
108.0,-14.0,66.0,-7.0,49.0,888.0,1076.0,50.0
107.0,-13.0,68.0,-6.0,50.0,888.0,929.0,51.0
106.0,-12.0,68.0,-6.0,49.0,888.0,615.0,50.0
107.0,-13.0,67.0,-8.0,48.0,886.0,699.0,49.0
107.0,-14.0,66.0,-8.0,49.0,886.0,670.0,49.0
108.0,-14.0,66.0,-8.0,48.0,885.0,630.0,48.0
108.0,-15.0,65.0,-9.0,47.0,883.0,733.0,47.0
109.0,-16.0,64.0,-10.0,49.0,882.0,963.0,48.0
108.0,-15.0,66.0,-8.0,50.0,883.0,773.0,49.0
107.0,-14.0,66.0,-8.0,49.0,883.0,686.0,49.0
107.0,-14.0,66.0,-8.0,49.0,882.0,671.0,49.0
106.0,-14.0,67.0,-6.0,50.0,883.0,541.0,50.0
105.0,-12.0,67.0,-6.0,48.0,882.0,329.0,49.0
106.0,-13.0,66.0,-8.0,47.0,880.0,541.0,48.0
106.0,-13.0,66.0,-8.0,48.0,880.0,579.0,48.0
106.0,-14.0,66.0,-8.0,48.0,879.0,533.0,48.0
107.0,-14.0,65.0,-9.0,48.0,878.0,599.0,47.0
108.0,-15.0,64.0,-10.0,49.0,877.0,806.0,47.0
107.0,-15.0,65.0,-8.0,50.0,878.0,590.0,49.0
106.0,-14.0,66.0,-8.0,48.0,877.0,475.0,49.0
106.0,-14.0,66.0,-7.0,49.0,877.0,500.0,49.0
106.0,-13.0,67.0,-6.0,49.0,877.0,421.0,50.0
105.0,-12.0,68.0,-6.0,48.0,877.0,190.0,50.0
105.0,-13.0,66.0,-7.0,47.0,875.0,377.0,48.0
106.0,-13.0,65.0,-7.0,48.0,875.0,457.0,48.0
105.0,-13.0,65.0,-8.0,48.0,874.0,473.0,48.0
106.0,-14.0,64.0,-9.0,47.0,872.0,571.0,46.0
108.0,-15.0,63.0,-10.0,48.0,871.0,856.0,47.0
107.0,-14.0,65.0,-8.0,49.0,872.0,711.0,48.0
106.0,-14.0,65.0,-8.0,48.0,871.0,613.0,48.0
106.0,-14.0,65.0,-8.0,48.0,871.0,621.0,48.0
105.0,-13.0,67.0,-7.0,49.0,872.0,556.0,49.0
90.0,-23.0,87.0,-4.0,35.0,842.0,1040.0,30.0
85.0,-22.0,94.0,-1.0,33.0,838.0,913.0,28.0
84.0,-14.0,90.0,-3.0,33.0,841.0,828.0,29.0
89.0,-6.0,79.0,-6.0,37.0,851.0,844.0,36.0
99.0,6.0,61.0,-10.0,47.0,870.0,710.0,49.0
116.0,31.0,28.0,-18.0,60.0,904.0,456.0,70.0
139.0,55.0,-13.0,-31.0,77.0,942.0,610.0,94.0
164.0,77.0,-55.0,-42.0,98.0,983.0,674.0,121.0
190.0,99.0,-97.0,-54.0,118.0,1024.0,714.0,149.0
216.0,120.0,-141.0,-66.0,138.0,1064.0,881.0,175.0
243.0,140.0,-184.0,-78.0,159.0,1104.0,1206.0,202.0
268.0,161.0,-224.0,-87.0,180.0,1146.0,1077.0,231.0
293.0,177.0,-263.0,-96.0,200.0,1184.0,987.0,257.0
318.0,183.0,-296.0,-103.0,219.0,1217.0,1029.0,281.0
340.0,183.0,-322.0,-107.0,234.0,1243.0,955.0,301.0
355.0,186.0,-342.0,-110.0,245.0,1263.0,664.0,316.0
367.0,188.0,-358.0,-115.0,252.0,1276.0,825.0,325.0
374.0,184.0,-364.0,-116.0,258.0,1280.0,951.0,330.0
376.0,172.0,-361.0,-115.0,259.0,1277.0,926.0,330.0
374.0,162.0,-354.0,-113.0,256.0,1267.0,998.0,324.0
367.0,153.0,-341.0,-110.0,250.0,1252.0,1276.0,315.0
355.0,143.0,-320.0,-103.0,243.0,1235.0,1130.0,305.0
342.0,130.0,-297.0,-97.0,231.0,1211.0,978.0,290.0
324.0,113.0,-266.0,-89.0,217.0,1180.0,925.0,270.0
301.0,93.0,-228.0,-78.0,200.0,1144.0,793.0,247.0
276.0,72.0,-187.0,-66.0,180.0,1105.0,396.0,221.0
251.0,46.0,-144.0,-56.0,158.0,1059.0,349.0,191.0
225.0,18.0,-98.0,-43.0,138.0,1014.0,311.0,162.0
200.0,-5.0,-55.0,-32.0,118.0,971.0,278.0,134.0
174.0,-23.0,-15.0,-23.0,97.0,930.0,535.0,106.0
149.0,-43.0,23.0,-14.0,77.0,888.0,989.0,79.0
121.0,-59.0,58.0,-7.0,57.0,848.0,950.0,53.0
92.0,-80.0,67.0,-7.0,34.0,801.0,802.0,22.0
65.0,-97.0,68.0,-7.0,14.0,760.0,763.0,-4.0
46.0,-88.0,68.0,-6.0,2.0,744.0,691.0,-17.0
40.0,-69.0,70.0,-4.0,0.0,748.0,401.0,-17.0
49.0,-59.0,68.0,-6.0,4.0,762.0,520.0,-10.0
64.0,-47.0,68.0,-6.0,16.0,785.0,714.0,5.0
78.0,-35.0,68.0,-6.0,27.0,807.0,780.0,20.0
90.0,-27.0,67.0,-7.0,36.0,824.0,857.0,31.0
99.0,-20.0,66.0,-8.0,43.0,836.0,1104.0,40.0
101.0,-16.0,67.0,-7.0,46.0,842.0,1054.0,44.0
100.0,-15.0,67.0,-6.0,45.0,841.0,961.0,44.0
100.0,-15.0,67.0,-6.0,45.0,840.0,799.0,44.0
100.0,-14.0,68.0,-5.0,45.0,840.0,-3.0,45.0
98.0,-13.0,70.0,-4.0,45.0,841.0,-366.0,45.0
99.0,-14.0,68.0,-6.0,43.0,839.0,76.0,43.0
99.0,-15.0,67.0,-7.0,44.0,838.0,377.0,43.0
99.0,-15.0,67.0,-7.0,44.0,837.0,454.0,43.0
99.0,-15.0,66.0,-7.0,44.0,837.0,551.0,43.0
101.0,-16.0,65.0,-8.0,44.0,835.0,761.0,42.0
100.0,-16.0,67.0,-7.0,46.0,836.0,635.0,44.0
100.0,-15.0,67.0,-7.0,45.0,836.0,450.0,44.0
100.0,-15.0,67.0,-6.0,45.0,835.0,457.0,44.0
99.0,-15.0,68.0,-5.0,45.0,835.0,424.0,45.0
98.0,-13.0,69.0,-4.0,44.0,836.0,164.0,45.0
98.0,-14.0,67.0,-6.0,42.0,833.0,212.0,43.0
99.0,-15.0,67.0,-6.0,43.0,833.0,329.0,43.0
99.0,-15.0,67.0,-6.0,44.0,832.0,385.0,43.0
99.0,-15.0,66.0,-7.0,43.0,831.0,459.0,42.0
100.0,-16.0,64.0,-9.0,43.0,830.0,732.0,42.0
99.0,-16.0,66.0,-7.0,45.0,831.0,657.0,44.0
99.0,-15.0,67.0,-6.0,45.0,831.0,521.0,44.0
99.0,-15.0,67.0,-6.0,44.0,830.0,530.0,44.0
98.0,-15.0,67.0,-5.0,45.0,830.0,470.0,44.0
97.0,-13.0,69.0,-4.0,45.0,831.0,207.0,45.0
97.0,-14.0,67.0,-6.0,43.0,828.0,259.0,43.0
98.0,-14.0,66.0,-6.0,43.0,828.0,375.0,43.0
98.0,-14.0,66.0,-6.0,43.0,827.0,404.0,43.0
98.0,-15.0,66.0,-7.0,43.0,826.0,485.0,42.0
99.0,-16.0,64.0,-8.0,43.0,825.0,736.0,41.0
99.0,-16.0,66.0,-7.0,45.0,826.0,667.0,43.0
98.0,-15.0,66.0,-6.0,44.0,825.0,-44.0,43.0
98.0,-15.0,66.0,-6.0,44.0,825.0,-1169.0,44.0
97.0,-15.0,66.0,-5.0,44.0,825.0,-1834.0,44.0
96.0,-13.0,68.0,-4.0,45.0,826.0,-2277.0,45.0
97.0,-14.0,67.0,-6.0,43.0,823.0,-2302.0,43.0
97.0,-14.0,66.0,-6.0,43.0,822.0,-2271.0,43.0
98.0,-14.0,66.0,-6.0,43.0,822.0,-2374.0,43.0
97.0,-14.0,65.0,-7.0,43.0,821.0,-2342.0,42.0
99.0,-16.0,64.0,-8.0,43.0,820.0,-2027.0,42.0
101.0,-14.0,68.0,-6.0,46.0,823.0,-2046.0,45.0
101.0,-13.0,70.0,-5.0,46.0,824.0,-2199.0,46.0
101.0,-13.0,71.0,-5.0,47.0,825.0,-2191.0,47.0
102.0,-11.0,74.0,-4.0,48.0,827.0,-2209.0,49.0
102.0,-10.0,77.0,-2.0,49.0,829.0,-2409.0,51.0
104.0,-12.0,77.0,-3.0,48.0,829.0,-2372.0,50.0
105.0,-13.0,76.0,-4.0,49.0,828.0,-2251.0,50.0
105.0,-13.0,76.0,-4.0,49.0,827.0,-2255.0,50.0
106.0,-14.0,77.0,-4.0,49.0,827.0,-2242.0,50.0
108.0,-14.0,77.0,-5.0,51.0,828.0,-2043.0,51.0
108.0,-13.0,79.0,-3.0,53.0,830.0,-2075.0,53.0
108.0,-12.0,80.0,-3.0,52.0,830.0,-2183.0,54.0
109.0,-13.0,81.0,-3.0,53.0,830.0,-2099.0,54.0
110.0,-14.0,82.0,-2.0,54.0,831.0,-2071.0,56.0
109.0,-12.0,85.0,0.0,55.0,832.0,-2288.0,57.0
109.0,-9.0,85.0,-1.0,53.0,832.0,-2267.0,55.0
111.0,-10.0,85.0,-1.0,54.0,832.0,-2189.0,56.0
113.0,-12.0,86.0,-2.0,55.0,832.0,-2241.0,57.0
113.0,-13.0,86.0,-2.0,55.0,832.0,-2185.0,57.0
115.0,-13.0,86.0,-3.0,56.0,832.0,-1962.0,57.0
117.0,-11.0,91.0,-1.0,60.0,837.0,-2028.0,61.0
119.0,-9.0,96.0,0.0,61.0,841.0,-2230.0,65.0
122.0,-7.0,100.0,1.0,63.0,845.0,-2289.0,68.0
123.0,-5.0,104.0,2.0,65.0,847.0,-2356.0,70.0
124.0,-3.0,107.0,4.0,66.0,850.0,-2628.0,73.0
126.0,-2.0,110.0,4.0,65.0,852.0,-2650.0,73.0
129.0,0.0,114.0,5.0,69.0,856.0,-2523.0,76.0
133.0,0.0,118.0,6.0,71.0,859.0,-2001.0,79.0
136.0,2.0,122.0,6.0,73.0,863.0,-963.0,81.0
140.0,0.0,124.0,5.0,75.0,864.0,-130.0,82.0
143.0,0.0,128.0,7.0,79.0,868.0,138.0,86.0
144.0,2.0,133.0,9.0,81.0,872.0,126.0,90.0
147.0,5.0,138.0,10.0,83.0,876.0,286.0,93.0
149.0,7.0,143.0,12.0,85.0,881.0,325.0,96.0
151.0,10.0,149.0,14.0,87.0,885.0,116.0,100.0
154.0,9.0,150.0,14.0,87.0,887.0,-114.0,100.0
157.0,9.0,153.0,14.0,90.0,889.0,-230.0,102.0
158.0,9.0,155.0,14.0,91.0,890.0,24.0,104.0
160.0,10.0,156.0,14.0,92.0,892.0,196.0,105.0
162.0,9.0,156.0,13.0,93.0,892.0,469.0,105.0
164.0,8.0,159.0,14.0,96.0,894.0,462.0,108.0
164.0,8.0,160.0,15.0,95.0,894.0,256.0,109.0
164.0,8.0,160.0,15.0,95.0,894.0,218.0,109.0
165.0,9.0,163.0,16.0,97.0,896.0,120.0,111.0
165.0,11.0,166.0,18.0,98.0,898.0,-191.0,113.0
165.0,11.0,165.0,16.0,95.0,896.0,-181.0,110.0
165.0,10.0,163.0,16.0,96.0,895.0,73.0,110.0
164.0,8.0,161.0,15.0,95.0,892.0,121.0,108.0
163.0,7.0,159.0,14.0,94.0,889.0,172.0,107.0
164.0,3.0,155.0,12.0,93.0,885.0,374.0,105.0
162.0,3.0,154.0,12.0,93.0,884.0,394.0,105.0
160.0,2.0,152.0,13.0,92.0,882.0,206.0,104.0
158.0,3.0,150.0,13.0,90.0,879.0,206.0,102.0
156.0,1.0,148.0,12.0,90.0,877.0,118.0,101.0
153.0,2.0,148.0,13.0,89.0,875.0,-147.0,101.0
152.0,0.0,143.0,11.0,86.0,870.0,-203.0,97.0
151.0,-2.0,139.0,10.0,84.0,866.0,-19.0,94.0
148.0,-1.0,136.0,9.0,82.0,863.0,-16.0,92.0
146.0,-3.0,131.0,7.0,80.0,858.0,-16.0,89.0
145.0,-8.0,126.0,5.0,79.0,853.0,177.0,86.0
143.0,-11.0,123.0,5.0,79.0,850.0,227.0,85.0
140.0,-12.0,120.0,4.0,77.0,846.0,10.0,83.0
139.0,-16.0,116.0,3.0,75.0,842.0,12.0,81.0
136.0,-18.0,113.0,2.0,73.0,838.0,29.0,79.0
131.0,-16.0,111.0,4.0,72.0,835.0,-177.0,77.0
129.0,-14.0,107.0,3.0,68.0,831.0,-209.0,73.0
126.0,-14.0,104.0,2.0,66.0,827.0,-57.0,70.0
125.0,-15.0,101.0,0.0,65.0,824.0,-176.0,69.0
124.0,-16.0,99.0,0.0,63.0,821.0,-283.0,67.0
123.0,-18.0,95.0,-1.0,62.0,817.0,-253.0,64.0
122.0,-17.0,94.0,-1.0,63.0,817.0,-376.0,65.0
119.0,-16.0,92.0,-1.0,61.0,814.0,-591.0,64.0
117.0,-17.0,90.0,-1.0,60.0,812.0,-561.0,62.0
115.0,-15.0,89.0,-1.0,59.0,810.0,-558.0,61.0
112.0,-14.0,88.0,0.0,57.0,809.0,-756.0,61.0
111.0,-15.0,85.0,-1.0,54.0,805.0,-823.0,57.0
110.0,-15.0,84.0,-2.0,54.0,803.0,-635.0,56.0
108.0,-14.0,82.0,-2.0,53.0,801.0,-604.0,55.0
107.0,-15.0,79.0,-3.0,52.0,798.0,-537.0,53.0
107.0,-17.0,75.0,-5.0,50.0,795.0,-328.0,51.0
106.0,-16.0,75.0,-5.0,51.0,794.0,-277.0,51.0
105.0,-18.0,75.0,-4.0,51.0,792.0,-501.0,51.0
103.0,-17.0,73.0,-4.0,49.0,790.0,-571.0,50.0
102.0,-16.0,72.0,-4.0,48.0,789.0,-714.0,49.0
99.0,-14.0,73.0,-3.0,47.0,789.0,-1021.0,49.0
96.0,-13.0,68.0,-4.0,44.0,784.0,-1118.0,45.0
95.0,-14.0,66.0,-5.0,43.0,781.0,-958.0,43.0
93.0,-13.0,65.0,-5.0,42.0,779.0,-878.0,42.0
93.0,-12.0,64.0,-6.0,41.0,778.0,-885.0,41.0
94.0,-13.0,62.0,-7.0,41.0,776.0,-715.0,40.0
94.0,-14.0,62.0,-7.0,42.0,776.0,-565.0,40.0
92.0,-14.0,60.0,-6.0,41.0,774.0,-665.0,40.0
90.0,-14.0,59.0,-7.0,40.0,772.0,-556.0,39.0
90.0,-14.0,60.0,-6.0,40.0,772.0,-501.0,39.0
89.0,-13.0,61.0,-4.0,41.0,773.0,-790.0,40.0
89.0,-13.0,60.0,-5.0,38.0,771.0,-980.0,39.0
89.0,-14.0,60.0,-6.0,38.0,770.0,-814.0,38.0
89.0,-14.0,59.0,-6.0,39.0,769.0,-965.0,38.0
90.0,-14.0,59.0,-7.0,39.0,769.0,-1138.0,38.0
91.0,-15.0,57.0,-8.0,38.0,767.0,-1033.0,37.0
91.0,-15.0,58.0,-8.0,40.0,767.0,-868.0,38.0
89.0,-14.0,59.0,-7.0,40.0,768.0,-1074.0,39.0
89.0,-14.0,59.0,-6.0,40.0,767.0,-1138.0,39.0
89.0,-14.0,59.0,-6.0,40.0,767.0,-1151.0,39.0
88.0,-13.0,61.0,-4.0,40.0,768.0,-1203.0,40.0
88.0,-13.0,60.0,-5.0,38.0,767.0,-1189.0,38.0
88.0,-13.0,59.0,-6.0,38.0,765.0,-950.0,38.0
89.0,-14.0,59.0,-6.0,39.0,765.0,-858.0,38.0
89.0,-14.0,59.0,-7.0,39.0,764.0,-755.0,37.0
90.0,-15.0,57.0,-8.0,38.0,762.0,-567.0,37.0
90.0,-16.0,58.0,-7.0,40.0,763.0,-469.0,38.0
89.0,-15.0,58.0,-7.0,40.0,763.0,-683.0,38.0
89.0,-14.0,58.0,-6.0,39.0,762.0,-634.0,38.0
89.0,-14.0,59.0,-6.0,39.0,763.0,-569.0,39.0
88.0,-13.0,60.0,-4.0,40.0,763.0,-743.0,40.0
88.0,-13.0,60.0,-5.0,38.0,762.0,-893.0,39.0
88.0,-13.0,59.0,-6.0,38.0,760.0,-719.0,38.0
88.0,-14.0,59.0,-6.0,39.0,760.0,-713.0,38.0
88.0,-14.0,58.0,-6.0,38.0,759.0,-689.0,37.0
89.0,-15.0,57.0,-8.0,38.0,758.0,-523.0,36.0
89.0,-15.0,57.0,-8.0,39.0,757.0,-400.0,37.0
89.0,-14.0,58.0,-7.0,39.0,758.0,-597.0,38.0
89.0,-14.0,58.0,-7.0,39.0,758.0,-635.0,38.0
88.0,-14.0,58.0,-6.0,39.0,757.0,-639.0,38.0
87.0,-13.0,60.0,-4.0,40.0,758.0,-793.0,39.0
87.0,-13.0,60.0,-5.0,38.0,757.0,-920.0,38.0
88.0,-13.0,58.0,-6.0,37.0,756.0,-697.0,37.0
88.0,-14.0,59.0,-6.0,38.0,755.0,-733.0,37.0
88.0,-14.0,58.0,-7.0,38.0,754.0,-786.0,37.0
89.0,-15.0,56.0,-8.0,37.0,753.0,-664.0,36.0
89.0,-15.0,57.0,-8.0,39.0,753.0,-515.0,37.0
88.0,-14.0,58.0,-6.0,40.0,753.0,-700.0,38.0
88.0,-14.0,58.0,-6.0,39.0,753.0,-704.0,38.0
88.0,-14.0,58.0,-6.0,39.0,752.0,-668.0,38.0
87.0,-13.0,60.0,-4.0,40.0,753.0,-795.0,40.0
87.0,-13.0,59.0,-5.0,38.0,752.0,-937.0,38.0
87.0,-13.0,58.0,-6.0,37.0,751.0,-702.0,37.0
87.0,-13.0,58.0,-6.0,38.0,751.0,-654.0,37.0
87.0,-13.0,58.0,-7.0,37.0,750.0,-641.0,37.0
88.0,-15.0,56.0,-8.0,37.0,748.0,-562.0,36.0
88.0,-15.0,56.0,-8.0,39.0,748.0,-370.0,37.0
88.0,-14.0,57.0,-7.0,39.0,749.0,-491.0,38.0
88.0,-14.0,57.0,-7.0,38.0,748.0,-415.0,38.0
87.0,-14.0,58.0,-6.0,39.0,748.0,-296.0,38.0
87.0,-13.0,59.0,-5.0,40.0,749.0,-410.0,39.0
86.0,-12.0,59.0,-5.0,38.0,748.0,-645.0,38.0
87.0,-13.0,58.0,-6.0,37.0,746.0,-484.0,37.0
87.0,-13.0,58.0,-6.0,38.0,746.0,-489.0,37.0
87.0,-14.0,57.0,-6.0,38.0,745.0,-480.0,37.0
88.0,-15.0,56.0,-8.0,37.0,744.0,-207.0,36.0
88.0,-15.0,56.0,-8.0,39.0,743.0,83.0,36.0
87.0,-14.0,57.0,-6.0,39.0,744.0,-30.0,38.0
87.0,-14.0,57.0,-6.0,39.0,743.0,-107.0,37.0
87.0,-14.0,58.0,-6.0,39.0,743.0,-116.0,38.0
87.0,-13.0,59.0,-5.0,39.0,743.0,-340.0,39.0
86.0,-12.0,59.0,-5.0,37.0,743.0,-620.0,38.0
86.0,-13.0,58.0,-6.0,37.0,741.0,-439.0,36.0
87.0,-13.0,58.0,-6.0,38.0,741.0,-385.0,37.0
86.0,-14.0,57.0,-6.0,37.0,740.0,-377.0,37.0
87.0,-14.0,56.0,-8.0,37.0,739.0,-300.0,36.0
88.0,-15.0,56.0,-8.0,38.0,738.0,-213.0,36.0
87.0,-14.0,57.0,-7.0,39.0,739.0,-958.0,37.0
86.0,-14.0,56.0,-6.0,38.0,739.0,-1585.0,37.0
86.0,-13.0,57.0,-6.0,38.0,738.0,-1733.0,37.0
85.0,-13.0,58.0,-4.0,39.0,739.0,-1588.0,39.0
85.0,-12.0,58.0,-4.0,37.0,738.0,-1423.0,38.0
85.0,-13.0,57.0,-6.0,37.0,737.0,-1093.0,36.0
85.0,-13.0,57.0,-6.0,37.0,737.0,-1022.0,37.0
86.0,-13.0,57.0,-6.0,37.0,736.0,-1020.0,36.0
86.0,-14.0,56.0,-8.0,37.0,734.0,-901.0,35.0
87.0,-15.0,55.0,-8.0,38.0,734.0,-532.0,36.0
86.0,-14.0,56.0,-7.0,39.0,734.0,-429.0,37.0
86.0,-14.0,56.0,-6.0,38.0,734.0,-311.0,37.0
85.0,-14.0,56.0,-6.0,38.0,734.0,-204.0,37.0
85.0,-13.0,58.0,-5.0,38.0,735.0,-162.0,38.0
84.0,-12.0,58.0,-4.0,37.0,734.0,-185.0,37.0
85.0,-13.0,57.0,-5.0,36.0,732.0,98.0,36.0
85.0,-13.0,56.0,-6.0,37.0,732.0,213.0,36.0
85.0,-13.0,56.0,-6.0,37.0,731.0,204.0,36.0
86.0,-14.0,55.0,-8.0,36.0,730.0,336.0,35.0
86.0,-15.0,54.0,-8.0,38.0,729.0,585.0,35.0
85.0,-14.0,56.0,-6.0,39.0,730.0,298.0,37.0
85.0,-14.0,56.0,-6.0,38.0,730.0,94.0,37.0
85.0,-14.0,56.0,-6.0,38.0,729.0,33.0,37.0
84.0,-13.0,57.0,-5.0,38.0,730.0,-98.0,38.0
83.0,-12.0,58.0,-4.0,37.0,729.0,-327.0,38.0
84.0,-13.0,56.0,-6.0,36.0,728.0,-135.0,36.0
84.0,-13.0,56.0,-6.0,37.0,727.0,15.0,36.0
84.0,-13.0,56.0,-7.0,36.0,726.0,44.0,36.0
85.0,-14.0,55.0,-7.0,36.0,725.0,134.0,35.0
86.0,-15.0,54.0,-8.0,37.0,724.0,311.0,35.0
85.0,-14.0,55.0,-7.0,38.0,725.0,4.0,37.0
85.0,-14.0,56.0,-6.0,37.0,725.0,-127.0,36.0
84.0,-14.0,56.0,-6.0,37.0,725.0,-87.0,37.0
84.0,-13.0,57.0,-5.0,38.0,725.0,-159.0,37.0
83.0,-12.0,58.0,-4.0,37.0,725.0,-404.0,37.0
84.0,-13.0,56.0,-6.0,36.0,723.0,-253.0,35.0
84.0,-14.0,55.0,-6.0,37.0,722.0,-241.0,36.0
84.0,-13.0,55.0,-6.0,37.0,722.0,-357.0,35.0
84.0,-14.0,55.0,-8.0,36.0,721.0,-369.0,35.0
85.0,-15.0,54.0,-8.0,37.0,720.0,-81.0,35.0
85.0,-14.0,55.0,-6.0,37.0,721.0,-167.0,36.0
84.0,-14.0,55.0,-6.0,37.0,720.0,-170.0,36.0
84.0,-14.0,56.0,-6.0,37.0,720.0,-74.0,37.0
83.0,-13.0,56.0,-5.0,38.0,720.0,-201.0,38.0
82.0,-12.0,57.0,-4.0,37.0,720.0,-532.0,37.0
83.0,-13.0,55.0,-5.0,36.0,718.0,-468.0,35.0
83.0,-13.0,55.0,-6.0,37.0,718.0,-387.0,35.0
84.0,-13.0,55.0,-6.0,37.0,718.0,-311.0,35.0
84.0,-14.0,54.0,-7.0,36.0,716.0,-200.0,34.0
85.0,-15.0,53.0,-8.0,37.0,715.0,34.0,35.0
84.0,-14.0,55.0,-6.0,38.0,716.0,-37.0,37.0
84.0,-14.0,55.0,-6.0,37.0,716.0,143.0,36.0
84.0,-13.0,55.0,-6.0,37.0,715.0,283.0,36.0
83.0,-13.0,56.0,-5.0,37.0,716.0,75.0,37.0
82.0,-11.0,57.0,-4.0,36.0,716.0,-294.0,37.0
83.0,-12.0,55.0,-5.0,35.0,714.0,-226.0,35.0
83.0,-13.0,55.0,-6.0,36.0,714.0,-229.0,35.0
83.0,-13.0,55.0,-6.0,36.0,713.0,-293.0,35.0
83.0,-13.0,54.0,-7.0,36.0,712.0,-240.0,34.0
84.0,-15.0,53.0,-8.0,36.0,710.0,-25.0,34.0
84.0,-14.0,54.0,-7.0,38.0,711.0,-188.0,36.0
83.0,-14.0,54.0,-6.0,37.0,711.0,-242.0,36.0
83.0,-13.0,55.0,-6.0,37.0,711.0,-211.0,36.0
82.0,-13.0,56.0,-5.0,37.0,711.0,-333.0,37.0
81.0,-12.0,57.0,-4.0,36.0,711.0,-554.0,37.0
82.0,-12.0,55.0,-6.0,34.0,709.0,-270.0,35.0
82.0,-13.0,55.0,-6.0,36.0,709.0,-111.0,35.0
82.0,-13.0,54.0,-6.0,36.0,708.0,-158.0,35.0
83.0,-14.0,53.0,-7.0,35.0,707.0,-77.0,34.0
83.0,-15.0,52.0,-8.0,36.0,706.0,166.0,34.0
83.0,-14.0,54.0,-6.0,38.0,707.0,20.0,36.0
82.0,-13.0,54.0,-6.0,37.0,707.0,-54.0,36.0
82.0,-13.0,54.0,-6.0,36.0,706.0,-53.0,36.0
82.0,-13.0,55.0,-5.0,37.0,707.0,-96.0,36.0
81.0,-11.0,56.0,-4.0,36.0,707.0,-258.0,37.0
81.0,-12.0,54.0,-6.0,35.0,705.0,-66.0,35.0
81.0,-12.0,54.0,-6.0,35.0,705.0,136.0,35.0
82.0,-13.0,54.0,-6.0,35.0,704.0,196.0,35.0
82.0,-13.0,53.0,-7.0,35.0,703.0,180.0,34.0
83.0,-15.0,52.0,-8.0,36.0,702.0,372.0,33.0
82.0,-14.0,54.0,-6.0,37.0,703.0,282.0,35.0
82.0,-13.0,54.0,-6.0,36.0,703.0,275.0,35.0
82.0,-13.0,54.0,-6.0,36.0,702.0,379.0,35.0
81.0,-12.0,54.0,-5.0,37.0,702.0,339.0,36.0
80.0,-11.0,56.0,-4.0,36.0,702.0,84.0,36.0
81.0,-12.0,54.0,-5.0,34.0,701.0,206.0,35.0
81.0,-12.0,54.0,-6.0,35.0,700.0,311.0,35.0
81.0,-13.0,54.0,-6.0,35.0,700.0,248.0,34.0
82.0,-13.0,53.0,-7.0,35.0,698.0,252.0,34.0
83.0,-15.0,52.0,-8.0,35.0,697.0,412.0,33.0
82.0,-14.0,53.0,-7.0,36.0,698.0,153.0,35.0
82.0,-13.0,53.0,-6.0,36.0,698.0,-83.0,35.0
81.0,-13.0,54.0,-5.0,36.0,698.0,-122.0,35.0
81.0,-12.0,55.0,-5.0,36.0,698.0,-175.0,36.0
80.0,-11.0,56.0,-3.0,36.0,698.0,-408.0,36.0
81.0,-11.0,56.0,-5.0,35.0,698.0,-277.0,35.0
84.0,-10.0,60.0,-4.0,38.0,702.0,-115.0,38.0
86.0,-9.0,62.0,-4.0,39.0,704.0,99.0,40.0
88.0,-9.0,63.0,-4.0,40.0,705.0,377.0,41.0
92.0,-10.0,65.0,-5.0,42.0,707.0,715.0,43.0
95.0,-11.0,71.0,-2.0,47.0,712.0,710.0,48.0
97.0,-11.0,74.0,-1.0,48.0,714.0,620.0,50.0
99.0,-11.0,76.0,-1.0,49.0,716.0,566.0,52.0
101.0,-11.0,80.0,0.0,52.0,719.0,491.0,55.0
101.0,-10.0,83.0,1.0,53.0,721.0,195.0,56.0
102.0,-8.0,83.0,0.0,51.0,720.0,242.0,55.0
102.0,-7.0,83.0,0.0,52.0,721.0,323.0,56.0
104.0,-8.0,84.0,0.0,53.0,721.0,301.0,57.0
105.0,-10.0,84.0,0.0,53.0,721.0,327.0,56.0
106.0,-12.0,83.0,-2.0,54.0,720.0,564.0,56.0
106.0,-11.0,84.0,0.0,55.0,721.0,534.0,58.0
105.0,-10.0,84.0,0.0,54.0,720.0,380.0,58.0
105.0,-10.0,84.0,0.0,54.0,720.0,365.0,58.0
105.0,-13.0,84.0,0.0,55.0,719.0,362.0,58.0
104.0,-13.0,84.0,1.0,54.0,719.0,192.0,58.0
104.0,-14.0,82.0,0.0,52.0,717.0,319.0,56.0
104.0,-14.0,82.0,0.0,53.0,716.0,471.0,56.0
103.0,-13.0,81.0,0.0,52.0,714.0,491.0,54.0
102.0,-12.0,79.0,-1.0,51.0,712.0,491.0,53.0
103.0,-13.0,78.0,-2.0,51.0,711.0,680.0,52.0
102.0,-13.0,79.0,-1.0,52.0,712.0,442.0,54.0
100.0,-13.0,76.0,-1.0,51.0,709.0,192.0,52.0
99.0,-14.0,75.0,-2.0,50.0,707.0,279.0,52.0
98.0,-14.0,75.0,-1.0,49.0,706.0,298.0,52.0
96.0,-13.0,74.0,0.0,48.0,705.0,31.0,51.0
95.0,-14.0,71.0,-1.0,45.0,701.0,113.0,48.0
93.0,-13.0,69.0,-2.0,45.0,699.0,352.0,46.0
92.0,-13.0,68.0,-3.0,44.0,697.0,381.0,45.0
91.0,-14.0,65.0,-4.0,42.0,694.0,421.0,43.0
91.0,-15.0,62.0,-6.0,42.0,691.0,550.0,41.0
89.0,-13.0,62.0,-5.0,42.0,691.0,357.0,42.0
87.0,-12.0,61.0,-4.0,41.0,689.0,101.0,41.0
84.0,-13.0,58.0,-5.0,39.0,686.0,-23.0,39.0
82.0,-11.0,57.0,-4.0,38.0,684.0,-152.0,38.0
79.0,-9.0,57.0,-3.0,37.0,683.0,-484.0,37.0
78.0,-11.0,53.0,-5.0,33.0,679.0,-528.0,33.0
78.0,-12.0,52.0,-5.0,34.0,678.0,-403.0,33.0
78.0,-13.0,52.0,-6.0,34.0,677.0,-503.0,33.0
78.0,-13.0,51.0,-7.0,34.0,676.0,-614.0,32.0
80.0,-14.0,50.0,-8.0,33.0,675.0,-424.0,32.0
79.0,-13.0,51.0,-6.0,35.0,676.0,-400.0,34.0
79.0,-13.0,51.0,-6.0,35.0,676.0,-518.0,34.0
79.0,-13.0,51.0,-6.0,35.0,676.0,-494.0,34.0
78.0,-12.0,52.0,-5.0,35.0,676.0,-498.0,34.0
77.0,-11.0,53.0,-3.0,35.0,676.0,-693.0,35.0
77.0,-12.0,52.0,-4.0,33.0,674.0,-627.0,33.0
78.0,-12.0,51.0,-5.0,34.0,674.0,-478.0,33.0
78.0,-12.0,51.0,-6.0,34.0,673.0,-490.0,33.0
78.0,-12.0,51.0,-6.0,33.0,673.0,-434.0,33.0
79.0,-14.0,49.0,-8.0,33.0,671.0,-184.0,31.0
79.0,-13.0,50.0,-6.0,35.0,672.0,-163.0,33.0
78.0,-13.0,51.0,-6.0,34.0,672.0,-263.0,34.0
78.0,-13.0,51.0,-5.0,34.0,671.0,-270.0,34.0
78.0,-12.0,52.0,-5.0,35.0,671.0,-398.0,34.0
76.0,-11.0,53.0,-4.0,35.0,672.0,-497.0,35.0
77.0,-11.0,51.0,-5.0,33.0,670.0,-357.0,33.0
77.0,-12.0,51.0,-6.0,33.0,669.0,-277.0,33.0
78.0,-13.0,51.0,-6.0,34.0,669.0,-318.0,33.0
78.0,-13.0,50.0,-6.0,33.0,668.0,-245.0,32.0
79.0,-14.0,49.0,-8.0,33.0,667.0,-156.0,31.0
78.0,-14.0,50.0,-7.0,35.0,667.0,-278.0,33.0
77.0,-13.0,51.0,-6.0,34.0,667.0,-420.0,33.0
77.0,-13.0,51.0,-6.0,34.0,667.0,-415.0,33.0
77.0,-12.0,51.0,-5.0,34.0,667.0,-461.0,34.0
76.0,-11.0,52.0,-4.0,34.0,668.0,-711.0,34.0
76.0,-11.0,51.0,-5.0,32.0,666.0,-688.0,33.0
77.0,-12.0,51.0,-6.0,33.0,665.0,-553.0,33.0
77.0,-12.0,51.0,-6.0,33.0,665.0,-542.0,33.0
77.0,-12.0,50.0,-6.0,33.0,664.0,-511.0,32.0
78.0,-13.0,48.0,-8.0,33.0,662.0,-289.0,31.0
78.0,-14.0,50.0,-7.0,35.0,663.0,-160.0,33.0
75.0,-13.0,53.0,-5.0,33.0,661.0,-314.0,31.0
70.0,-15.0,60.0,-3.0,29.0,653.0,-371.0,26.0
65.0,-18.0,68.0,-1.0,25.0,646.0,-423.0,21.0
58.0,-18.0,76.0,1.0,21.0,640.0,-687.0,17.0
54.0,-18.0,80.0,1.0,16.0,633.0,-810.0,12.0
55.0,-12.0,76.0,-1.0,18.0,637.0,-832.0,14.0
61.0,-4.0,64.0,-4.0,23.0,647.0,-877.0,20.0
72.0,7.0,44.0,-10.0,31.0,665.0,-891.0,33.0
90.0,31.0,9.0,-21.0,46.0,698.0,-797.0,53.0
113.0,56.0,-30.0,-31.0,67.0,739.0,-857.0,81.0
137.0,79.0,-71.0,-42.0,86.0,780.0,-1100.0,108.0
163.0,101.0,-114.0,-52.0,106.0,821.0,-1078.0,136.0
189.0,122.0,-156.0,-63.0,126.0,863.0,-1049.0,163.0
214.0,145.0,-197.0,-73.0,147.0,905.0,-1249.0,192.0
239.0,165.0,-240.0,-84.0,164.0,944.0,-1223.0,217.0
266.0,179.0,-279.0,-95.0,184.0,981.0,-987.0,243.0
291.0,185.0,-312.0,-102.0,204.0,1014.0,-906.0,266.0
313.0,183.0,-338.0,-107.0,219.0,1039.0,-809.0,285.0
330.0,184.0,-361.0,-113.0,231.0,1057.0,-586.0,299.0
341.0,188.0,-374.0,-116.0,241.0,1072.0,-518.0,311.0
347.0,184.0,-378.0,-115.0,244.0,1077.0,-578.0,316.0
349.0,173.0,-375.0,-113.0,245.0,1073.0,-500.0,315.0
346.0,164.0,-366.0,-109.0,243.0,1065.0,-558.0,311.0
336.0,156.0,-350.0,-104.0,237.0,1052.0,-740.0,303.0
325.0,146.0,-332.0,-100.0,225.0,1032.0,-685.0,288.0
312.0,132.0,-310.0,-94.0,215.0,1008.0,-489.0,273.0
294.0,113.0,-279.0,-86.0,202.0,977.0,-535.0,253.0
273.0,92.0,-242.0,-76.0,184.0,939.0,-519.0,229.0
250.0,69.0,-203.0,-67.0,164.0,897.0,-267.0,202.0
224.0,44.0,-158.0,-55.0,145.0,855.0,-279.0,175.0
197.0,17.0,-111.0,-41.0,124.0,810.0,-548.0,147.0
171.0,-4.0,-68.0,-30.0,103.0,767.0,-626.0,119.0
145.0,-22.0,-28.0,-20.0,83.0,727.0,-725.0,92.0
118.0,-39.0,14.0,-8.0,64.0,688.0,-1046.0,66.0
90.0,-56.0,46.0,-4.0,40.0,645.0,-1172.0,36.0
62.0,-79.0,53.0,-4.0,18.0,598.0,-986.0,5.0
35.0,-95.0,54.0,-5.0,-1.0,558.0,-984.0,-20.0
18.0,-86.0,54.0,-5.0,-13.0,542.0,-1032.0,-34.0
14.0,-70.0,52.0,-6.0,-15.0,544.0,-932.0,-36.0
24.0,-60.0,53.0,-6.0,-6.0,561.0,-922.0,-24.0
37.0,-45.0,53.0,-5.0,3.0,584.0,-1146.0,-8.0
51.0,-33.0,53.0,-5.0,14.0,607.0,-1145.0,6.0
63.0,-24.0,54.0,-4.0,23.0,625.0,-1111.0,19.0
70.0,-15.0,55.0,-2.0,30.0,640.0,-1229.0,29.0
71.0,-12.0,54.0,-3.0,30.0,642.0,-1291.0,29.0
72.0,-13.0,54.0,-4.0,30.0,641.0,-1141.0,29.0
72.0,-13.0,53.0,-4.0,30.0,640.0,-1155.0,29.0
73.0,-14.0,53.0,-5.0,30.0,640.0,-1095.0,28.0
73.0,-15.0,51.0,-7.0,30.0,638.0,-905.0,27.0
73.0,-15.0,52.0,-6.0,32.0,638.0,-867.0,29.0
73.0,-14.0,53.0,-4.0,32.0,639.0,-1075.0,29.0
72.0,-14.0,53.0,-5.0,31.0,638.0,-1066.0,29.0
72.0,-14.0,53.0,-4.0,31.0,638.0,-1098.0,30.0
71.0,-12.0,55.0,-2.0,31.0,639.0,-1296.0,31.0
71.0,-12.0,54.0,-3.0,29.0,638.0,-1334.0,29.0
71.0,-13.0,53.0,-4.0,29.0,637.0,-1042.0,29.0
71.0,-14.0,53.0,-4.0,30.0,636.0,-925.0,29.0
71.0,-13.0,53.0,-4.0,30.0,636.0,-878.0,28.0
72.0,-15.0,51.0,-6.0,29.0,634.0,-742.0,27.0
72.0,-15.0,52.0,-6.0,31.0,634.0,-693.0,28.0
72.0,-14.0,53.0,-4.0,31.0,635.0,-935.0,30.0
72.0,-14.0,53.0,-4.0,31.0,634.0,-1061.0,29.0
72.0,-13.0,53.0,-4.0,31.0,634.0,-1171.0,30.0
70.0,-12.0,55.0,-2.0,32.0,635.0,-1349.0,31.0
70.0,-12.0,54.0,-3.0,29.0,634.0,-1379.0,29.0
71.0,-13.0,52.0,-4.0,29.0,632.0,-1147.0,28.0
71.0,-13.0,53.0,-4.0,30.0,632.0,-1086.0,28.0
71.0,-13.0,52.0,-5.0,30.0,632.0,-998.0,28.0
72.0,-14.0,51.0,-6.0,29.0,630.0,-816.0,27.0
72.0,-15.0,51.0,-6.0,31.0,630.0,-698.0,29.0
71.0,-14.0,52.0,-4.0,31.0,631.0,-871.0,29.0
71.0,-14.0,52.0,-5.0,30.0,630.0,-851.0,29.0
71.0,-14.0,53.0,-4.0,31.0,630.0,-832.0,29.0
70.0,-12.0,54.0,-3.0,31.0,631.0,-1028.0,31.0
70.0,-12.0,53.0,-3.0,29.0,630.0,-1233.0,29.0
71.0,-13.0,53.0,-4.0,29.0,629.0,-983.0,28.0
71.0,-13.0,53.0,-4.0,30.0,629.0,-846.0,29.0
71.0,-13.0,52.0,-4.0,30.0,628.0,-729.0,28.0
71.0,-14.0,51.0,-6.0,29.0,626.0,-549.0,27.0
72.0,-15.0,51.0,-6.0,31.0,626.0,-412.0,28.0
71.0,-14.0,52.0,-5.0,31.0,627.0,-472.0,29.0
71.0,-14.0,52.0,-5.0,30.0,626.0,-426.0,29.0
70.0,-13.0,52.0,-4.0,30.0,626.0,-517.0,29.0
70.0,-12.0,55.0,-2.0,31.0,628.0,-786.0,31.0
71.0,-11.0,57.0,-2.0,31.0,630.0,-893.0,32.0
72.0,-11.0,57.0,-3.0,32.0,629.0,-504.0,31.0
74.0,-11.0,57.0,-3.0,32.0,630.0,-356.0,32.0
75.0,-10.0,60.0,-3.0,33.0,632.0,-329.0,33.0
77.0,-11.0,60.0,-4.0,34.0,631.0,-243.0,33.0
79.0,-13.0,60.0,-4.0,37.0,632.0,-149.0,35.0
79.0,-13.0,62.0,-2.0,37.0,634.0,-290.0,36.0
79.0,-13.0,62.0,-2.0,37.0,633.0,-212.0,36.0
83.0,-13.0,68.0,-1.0,40.0,636.0,-366.0,40.0
84.0,-12.0,68.0,-2.0,39.0,636.0,-25.0,39.0
85.0,-10.0,69.0,-2.0,41.0,637.0,120.0,41.0
85.0,-10.0,71.0,0.0,42.0,639.0,-55.0,43.0
86.0,-12.0,72.0,0.0,43.0,639.0,34.0,44.0
86.0,-11.0,73.0,0.0,43.0,640.0,58.0,44.0
86.0,-10.0,76.0,1.0,44.0,642.0,-51.0,47.0
88.0,-7.0,80.0,2.0,45.0,645.0,-135.0,48.0
92.0,-6.0,83.0,2.0,46.0,648.0,102.0,50.0
95.0,-5.0,87.0,3.0,49.0,652.0,274.0,53.0
96.0,-4.0,89.0,3.0,50.0,654.0,417.0,55.0
99.0,-4.0,90.0,2.0,50.0,655.0,542.0,55.0
102.0,-3.0,94.0,3.0,54.0,659.0,682.0,58.0
104.0,0.0,100.0,6.0,57.0,664.0,644.0,63.0
107.0,1.0,105.0,7.0,59.0,667.0,692.0,65.0
109.0,3.0,109.0,9.0,61.0,672.0,645.0,68.0
111.0,4.0,114.0,11.0,64.0,676.0,518.0,72.0
113.0,4.0,117.0,11.0,65.0,678.0,369.0,74.0
117.0,5.0,120.0,11.0,66.0,681.0,583.0,75.0
120.0,7.0,124.0,12.0,69.0,685.0,594.0,78.0
123.0,8.0,129.0,13.0,71.0,689.0,628.0,81.0
127.0,10.0,132.0,13.0,72.0,692.0,795.0,83.0
130.0,8.0,135.0,13.0,76.0,695.0,1039.0,86.0
132.0,9.0,139.0,15.0,78.0,699.0,914.0,89.0
133.0,10.0,141.0,15.0,78.0,700.0,856.0,90.0
134.0,11.0,143.0,16.0,79.0,702.0,767.0,92.0
135.0,12.0,146.0,18.0,81.0,704.0,544.0,94.0
135.0,12.0,147.0,18.0,80.0,704.0,327.0,94.0
137.0,10.0,146.0,17.0,80.0,704.0,552.0,94.0
137.0,10.0,147.0,17.0,82.0,704.0,630.0,94.0
140.0,10.0,149.0,17.0,83.0,706.0,636.0,96.0
140.0,10.0,149.0,17.0,83.0,705.0,733.0,95.0
141.0,9.0,149.0,16.0,84.0,705.0,932.0,96.0
140.0,10.0,150.0,17.0,84.0,705.0,778.0,97.0
138.0,9.0,147.0,17.0,82.0,702.0,732.0,95.0
137.0,8.0,145.0,16.0,81.0,700.0,749.0,94.0
136.0,6.0,145.0,17.0,82.0,699.0,713.0,94.0
133.0,7.0,143.0,17.0,79.0,696.0,612.0,92.0
132.0,5.0,139.0,15.0,77.0,692.0,862.0,89.0
131.0,4.0,137.0,14.0,77.0,690.0,887.0,88.0
130.0,2.0,134.0,13.0,76.0,687.0,878.0,86.0
129.0,1.0,130.0,11.0,74.0,683.0,1036.0,83.0
128.0,-2.0,127.0,10.0,74.0,680.0,1360.0,82.0
125.0,-2.0,125.0,11.0,73.0,677.0,1296.0,81.0
122.0,-1.0,122.0,10.0,70.0,674.0,1266.0,78.0
120.0,-3.0,118.0,9.0,68.0,670.0,1241.0,76.0
118.0,-5.0,117.0,10.0,68.0,667.0,1151.0,76.0
115.0,-7.0,112.0,9.0,64.0,663.0,883.0,72.0
113.0,-10.0,107.0,7.0,61.0,657.0,1022.0,68.0
112.0,-14.0,103.0,5.0,61.0,654.0,1121.0,67.0
110.0,-16.0,99.0,4.0,59.0,649.0,1065.0,64.0
107.0,-18.0,94.0,2.0,56.0,644.0,1025.0,60.0
105.0,-16.0,91.0,1.0,56.0,641.0,1327.0,58.0
102.0,-14.0,90.0,2.0,55.0,640.0,1274.0,58.0
99.0,-14.0,88.0,2.0,53.0,637.0,1146.0,56.0
98.0,-15.0,86.0,2.0,52.0,634.0,1137.0,54.0
96.0,-15.0,85.0,2.0,51.0,633.0,986.0,54.0
93.0,-13.0,84.0,2.0,49.0,631.0,778.0,52.0
91.0,-13.0,79.0,1.0,46.0,627.0,1028.0,48.0
90.0,-15.0,77.0,0.0,46.0,624.0,1174.0,48.0
89.0,-14.0,75.0,0.0,44.0,623.0,1213.0,46.0
88.0,-15.0,72.0,-1.0,42.0,619.0,1302.0,43.0
87.0,-17.0,69.0,-3.0,42.0,616.0,1521.0,42.0
85.0,-14.0,70.0,0.0,43.0,617.0,1338.0,43.0
83.0,-13.0,68.0,-1.0,41.0,615.0,1264.0,42.0
82.0,-14.0,66.0,-1.0,40.0,613.0,1189.0,40.0
79.0,-13.0,65.0,0.0,40.0,611.0,861.0,40.0
77.0,-12.0,65.0,0.0,38.0,610.0,391.0,39.0
78.0,-15.0,62.0,-2.0,36.0,606.0,169.0,36.0
77.0,-16.0,60.0,-2.0,35.0,604.0,-271.0,35.0
76.0,-14.0,59.0,-3.0,34.0,603.0,-518.0,34.0
74.0,-13.0,56.0,-4.0,32.0,600.0,-568.0,32.0
73.0,-15.0,52.0,-6.0,32.0,597.0,-436.0,29.0
70.0,-14.0,52.0,-4.0,32.0,596.0,-616.0,30.0
68.0,-12.0,51.0,-4.0,30.0,594.0,-690.0,29.0
68.0,-12.0,51.0,-4.0,30.0,593.0,-756.0,29.0
66.0,-11.0,52.0,-3.0,30.0,594.0,-908.0,29.0
65.0,-10.0,52.0,-2.0,29.0,593.0,-1090.0,29.0
65.0,-12.0,48.0,-4.0,26.0,589.0,-801.0,25.0
64.0,-13.0,47.0,-4.0,27.0,588.0,-701.0,25.0
64.0,-13.0,46.0,-5.0,26.0,587.0,-749.0,24.0
65.0,-14.0,45.0,-6.0,26.0,586.0,-692.0,24.0
65.0,-15.0,45.0,-7.0,26.0,585.0,-510.0,24.0
65.0,-14.0,46.0,-5.0,28.0,586.0,-728.0,25.0
64.0,-13.0,46.0,-5.0,27.0,586.0,-864.0,25.0
64.0,-13.0,47.0,-5.0,27.0,585.0,-869.0,25.0
64.0,-13.0,47.0,-4.0,27.0,586.0,-959.0,26.0
63.0,-12.0,48.0,-3.0,26.0,586.0,-1178.0,26.0
63.0,-12.0,46.0,-4.0,25.0,585.0,-1044.0,24.0
64.0,-12.0,46.0,-4.0,26.0,584.0,-991.0,25.0
64.0,-13.0,46.0,-5.0,26.0,583.0,-1050.0,25.0
64.0,-13.0,46.0,-6.0,26.0,583.0,-1061.0,24.0
65.0,-15.0,44.0,-7.0,27.0,582.0,-935.0,23.0
65.0,-14.0,46.0,-5.0,28.0,582.0,-1190.0,26.0
64.0,-13.0,46.0,-5.0,27.0,582.0,-1256.0,25.0
64.0,-13.0,46.0,-5.0,27.0,582.0,-1242.0,25.0
63.0,-12.0,47.0,-4.0,28.0,582.0,-1330.0,26.0
62.0,-11.0,48.0,-2.0,26.0,582.0,-1555.0,26.0
63.0,-12.0,46.0,-4.0,25.0,580.0,-1367.0,24.0
63.0,-13.0,46.0,-4.0,26.0,580.0,-1215.0,24.0
63.0,-13.0,46.0,-5.0,26.0,580.0,-1165.0,24.0
64.0,-13.0,45.0,-6.0,25.0,579.0,-978.0,23.0
65.0,-14.0,44.0,-7.0,26.0,577.0,-647.0,23.0
64.0,-14.0,45.0,-5.0,27.0,578.0,-807.0,25.0
64.0,-13.0,46.0,-5.0,26.0,578.0,-932.0,25.0
64.0,-13.0,45.0,-4.0,27.0,578.0,-960.0,25.0
63.0,-12.0,46.0,-3.0,27.0,579.0,-1015.0,26.0
62.0,-11.0,48.0,-2.0,26.0,579.0,-1232.0,26.0
63.0,-12.0,46.0,-4.0,25.0,577.0,-1101.0,24.0
63.0,-12.0,46.0,-4.0,26.0,577.0,-1105.0,24.0
63.0,-13.0,46.0,-5.0,25.0,576.0,-1236.0,24.0
64.0,-13.0,45.0,-6.0,25.0,575.0,-1192.0,23.0
64.0,-14.0,44.0,-7.0,26.0,574.0,-955.0,23.0
64.0,-13.0,45.0,-5.0,27.0,575.0,-1108.0,25.0
64.0,-13.0,45.0,-5.0,26.0,575.0,-1233.0,24.0
63.0,-13.0,45.0,-5.0,26.0,575.0,-1237.0,25.0
63.0,-12.0,46.0,-4.0,27.0,575.0,-1261.0,25.0
62.0,-11.0,47.0,-3.0,26.0,575.0,-1461.0,26.0
62.0,-12.0,46.0,-4.0,25.0,574.0,-1272.0,24.0
63.0,-13.0,46.0,-4.0,26.0,574.0,-1118.0,24.0
63.0,-13.0,45.0,-5.0,26.0,573.0,-1138.0,24.0
63.0,-13.0,44.0,-5.0,25.0,572.0,-1146.0,23.0
64.0,-14.0,43.0,-7.0,25.0,570.0,-1051.0,22.0
64.0,-13.0,45.0,-5.0,27.0,571.0,-1480.0,25.0
63.0,-13.0,45.0,-5.0,26.0,571.0,-1733.0,24.0
63.0,-13.0,45.0,-5.0,26.0,571.0,-1765.0,25.0
63.0,-12.0,46.0,-4.0,27.0,571.0,-1911.0,26.0
61.0,-11.0,47.0,-3.0,26.0,572.0,-2212.0,26.0
62.0,-12.0,45.0,-5.0,25.0,570.0,-2113.0,24.0
62.0,-12.0,45.0,-5.0,25.0,569.0,-1962.0,24.0
62.0,-13.0,45.0,-4.0,26.0,569.0,-1936.0,24.0
63.0,-13.0,44.0,-5.0,25.0,568.0,-1876.0,23.0
64.0,-14.0,43.0,-6.0,25.0,566.0,-1692.0,22.0
63.0,-13.0,44.0,-5.0,27.0,568.0,-1831.0,24.0
62.0,-13.0,45.0,-5.0,26.0,567.0,-1975.0,24.0
62.0,-13.0,45.0,-5.0,26.0,567.0,-1989.0,24.0
62.0,-12.0,46.0,-4.0,26.0,568.0,-2026.0,25.0
61.0,-11.0,47.0,-2.0,26.0,569.0,-2231.0,26.0
61.0,-12.0,45.0,-4.0,25.0,567.0,-2151.0,24.0
62.0,-12.0,45.0,-4.0,25.0,566.0,-2119.0,24.0
62.0,-12.0,45.0,-4.0,25.0,566.0,-2209.0,24.0
62.0,-13.0,44.0,-5.0,25.0,565.0,-2219.0,23.0
63.0,-14.0,43.0,-7.0,25.0,563.0,-2074.0,22.0
63.0,-14.0,44.0,-5.0,27.0,564.0,-2229.0,24.0
62.0,-13.0,44.0,-4.0,26.0,564.0,-2480.0,24.0
62.0,-13.0,44.0,-4.0,25.0,564.0,-2586.0,24.0
62.0,-12.0,45.0,-4.0,26.0,564.0,-2611.0,25.0
60.0,-11.0,47.0,-2.0,26.0,565.0,-2782.0,26.0
61.0,-12.0,45.0,-4.0,24.0,563.0,-2712.0,24.0
61.0,-12.0,44.0,-4.0,25.0,562.0,-2480.0,23.0
61.0,-12.0,44.0,-5.0,26.0,562.0,-2395.0,24.0
62.0,-13.0,44.0,-5.0,25.0,561.0,-2304.0,23.0
63.0,-14.0,42.0,-7.0,25.0,559.0,-2021.0,22.0
62.0,-13.0,43.0,-5.0,27.0,561.0,-2057.0,24.0
62.0,-13.0,44.0,-5.0,26.0,561.0,-2255.0,24.0
61.0,-13.0,44.0,-5.0,26.0,560.0,-2451.0,24.0
61.0,-12.0,45.0,-4.0,26.0,561.0,-2588.0,25.0
60.0,-10.0,46.0,-2.0,26.0,561.0,-2875.0,25.0
60.0,-11.0,44.0,-4.0,24.0,559.0,-2821.0,23.0
61.0,-12.0,44.0,-4.0,25.0,559.0,-2659.0,23.0
61.0,-12.0,44.0,-5.0,25.0,558.0,-2634.0,23.0
61.0,-13.0,44.0,-5.0,24.0,558.0,-2592.0,23.0
62.0,-14.0,42.0,-7.0,25.0,556.0,-2393.0,22.0
62.0,-13.0,43.0,-5.0,26.0,557.0,-2454.0,24.0
62.0,-13.0,44.0,-4.0,26.0,557.0,-2521.0,24.0
61.0,-12.0,44.0,-4.0,26.0,556.0,-2413.0,24.0
61.0,-12.0,44.0,-4.0,26.0,557.0,-2399.0,24.0
60.0,-11.0,46.0,-2.0,26.0,558.0,-2634.0,25.0
60.0,-11.0,44.0,-4.0,24.0,556.0,-2555.0,23.0
60.0,-12.0,44.0,-4.0,25.0,555.0,-2422.0,23.0
61.0,-12.0,44.0,-4.0,25.0,555.0,-2485.0,23.0
61.0,-12.0,43.0,-5.0,25.0,554.0,-2485.0,22.0
62.0,-14.0,42.0,-6.0,24.0,553.0,-2323.0,22.0
62.0,-14.0,43.0,-5.0,26.0,554.0,-2482.0,24.0
61.0,-13.0,44.0,-5.0,25.0,553.0,-2683.0,24.0
61.0,-12.0,44.0,-5.0,25.0,553.0,-2651.0,24.0
60.0,-12.0,44.0,-4.0,26.0,553.0,-2601.0,25.0
59.0,-11.0,46.0,-2.0,26.0,554.0,-2722.0,26.0
59.0,-11.0,44.0,-3.0,24.0,552.0,-2632.0,23.0
60.0,-12.0,44.0,-4.0,25.0,552.0,-2471.0,23.0
60.0,-12.0,44.0,-4.0,25.0,551.0,-2502.0,23.0
61.0,-12.0,43.0,-5.0,24.0,551.0,-2514.0,22.0
61.0,-14.0,42.0,-7.0,24.0,549.0,-2327.0,22.0
62.0,-14.0,43.0,-5.0,26.0,550.0,-2368.0,24.0
61.0,-13.0,43.0,-5.0,25.0,550.0,-2482.0,23.0
61.0,-12.0,43.0,-4.0,25.0,550.0,-2398.0,24.0
62.0,-11.0,46.0,-3.0,27.0,553.0,-2407.0,26.0
63.0,-8.0,52.0,0.0,29.0,558.0,-2631.0,29.0
65.0,-7.0,52.0,-1.0,28.0,558.0,-2626.0,29.0
67.0,-8.0,54.0,-2.0,30.0,560.0,-2543.0,30.0
70.0,-8.0,58.0,-1.0,32.0,562.0,-2535.0,33.0
74.0,-10.0,61.0,-1.0,35.0,566.0,-2382.0,36.0
77.0,-11.0,63.0,-2.0,37.0,567.0,-2004.0,37.0
79.0,-11.0,66.0,0.0,40.0,570.0,-2025.0,40.0
81.0,-11.0,69.0,0.0,41.0,573.0,-2310.0,43.0
82.0,-11.0,71.0,0.0,42.0,574.0,-2365.0,44.0
82.0,-8.0,73.0,1.0,43.0,576.0,-2430.0,45.0
81.0,-6.0,75.0,3.0,43.0,577.0,-2660.0,47.0
83.0,-7.0,75.0,2.0,42.0,576.0,-2639.0,46.0
84.0,-9.0,75.0,1.0,43.0,576.0,-2426.0,46.0
84.0,-9.0,75.0,1.0,43.0,576.0,-2256.0,46.0
85.0,-10.0,74.0,1.0,43.0,575.0,-2158.0,45.0
86.0,-10.0,72.0,0.0,42.0,574.0,-2078.0,44.0
86.0,-11.0,73.0,0.0,44.0,574.0,-2155.0,46.0
85.0,-14.0,72.0,0.0,44.0,573.0,-2313.0,45.0
85.0,-14.0,72.0,0.0,44.0,572.0,-2287.0,45.0
84.0,-14.0,72.0,0.0,44.0,572.0,-2324.0,46.0
82.0,-12.0,74.0,2.0,44.0,573.0,-2580.0,47.0
81.0,-11.0,71.0,1.0,40.0,570.0,-2579.0,43.0
80.0,-11.0,70.0,0.0,40.0,568.0,-2419.0,42.0
80.0,-11.0,70.0,0.0,41.0,568.0,-2380.0,42.0
80.0,-11.0,69.0,0.0,40.0,566.0,-2212.0,42.0
80.0,-14.0,64.0,-2.0,38.0,562.0,-2008.0,39.0
79.0,-14.0,65.0,-1.0,40.0,562.0,-2060.0,40.0
77.0,-13.0,64.0,0.0,39.0,561.0,-2308.0,40.0
76.0,-15.0,62.0,-1.0,37.0,559.0,-2427.0,38.0
74.0,-14.0,61.0,0.0,37.0,557.0,-2483.0,37.0
72.0,-11.0,61.0,0.0,36.0,557.0,-2591.0,37.0
70.0,-11.0,58.0,-1.0,32.0,553.0,-2534.0,34.0
69.0,-13.0,55.0,-2.0,32.0,550.0,-2344.0,31.0
68.0,-13.0,53.0,-2.0,31.0,549.0,-2292.0,31.0
67.0,-12.0,52.0,-3.0,30.0,547.0,-2179.0,29.0
66.0,-13.0,49.0,-5.0,29.0,544.0,-1913.0,27.0
64.0,-13.0,47.0,-4.0,28.0,541.0,-1881.0,26.0
61.0,-11.0,46.0,-4.0,27.0,540.0,-2102.0,26.0
60.0,-11.0,44.0,-4.0,26.0,538.0,-2127.0,24.0
58.0,-12.0,42.0,-4.0,25.0,536.0,-2077.0,23.0
58.0,-11.0,44.0,-2.0,25.0,536.0,-2196.0,24.0
57.0,-11.0,42.0,-3.0,23.0,535.0,-2201.0,22.0
57.0,-11.0,42.0,-4.0,23.0,534.0,-2081.0,21.0
57.0,-11.0,42.0,-4.0,24.0,534.0,-2119.0,22.0
58.0,-12.0,41.0,-5.0,23.0,533.0,-2052.0,21.0
59.0,-13.0,40.0,-7.0,23.0,531.0,-1841.0,20.0
59.0,-13.0,41.0,-6.0,25.0,532.0,-1804.0,22.0
58.0,-12.0,41.0,-5.0,25.0,533.0,-1990.0,22.0
58.0,-12.0,41.0,-5.0,24.0,532.0,-1954.0,22.0
58.0,-12.0,42.0,-4.0,24.0,532.0,-1978.0,23.0
57.0,-11.0,43.0,-3.0,25.0,533.0,-2285.0,24.0
57.0,-11.0,43.0,-3.0,23.0,532.0,-2393.0,22.0
57.0,-11.0,42.0,-4.0,23.0,531.0,-2250.0,21.0
58.0,-12.0,42.0,-4.0,23.0,530.0,-2241.0,22.0
58.0,-12.0,41.0,-4.0,23.0,530.0,-2198.0,22.0
59.0,-13.0,39.0,-6.0,23.0,528.0,-2029.0,20.0
59.0,-13.0,40.0,-6.0,25.0,529.0,-1971.0,22.0
58.0,-12.0,41.0,-4.0,24.0,529.0,-2160.0,23.0
57.0,-12.0,41.0,-4.0,24.0,529.0,-2142.0,23.0
57.0,-12.0,41.0,-4.0,24.0,529.0,-2114.0,23.0
56.0,-10.0,43.0,-2.0,25.0,530.0,-2313.0,24.0
56.0,-10.0,42.0,-3.0,22.0,528.0,-2420.0,22.0
57.0,-11.0,42.0,-4.0,23.0,528.0,-2234.0,22.0
57.0,-11.0,41.0,-5.0,23.0,527.0,-2253.0,22.0
57.0,-12.0,41.0,-5.0,23.0,526.0,-2243.0,21.0
58.0,-13.0,39.0,-6.0,22.0,525.0,-2070.0,20.0
59.0,-13.0,40.0,-5.0,25.0,525.0,-2011.0,22.0
57.0,-12.0,41.0,-4.0,24.0,526.0,-2215.0,22.0
57.0,-12.0,41.0,-5.0,24.0,525.0,-2210.0,22.0
57.0,-11.0,41.0,-4.0,24.0,525.0,-2153.0,22.0
56.0,-10.0,42.0,-2.0,24.0,526.0,-2272.0,23.0
55.0,-10.0,42.0,-3.0,22.0,525.0,-2352.0,22.0
56.0,-11.0,41.0,-4.0,23.0,524.0,-2209.0,21.0
57.0,-11.0,41.0,-4.0,23.0,524.0,-2213.0,21.0
57.0,-12.0,41.0,-5.0,22.0,523.0,-2191.0,21.0
55.0,-13.0,42.0,-6.0,20.0,518.0,-2064.0,17.0
50.0,-16.0,51.0,-3.0,18.0,511.0,-2005.0,13.0
45.0,-19.0,59.0,0.0,14.0,504.0,-2209.0,9.0
39.0,-20.0,66.0,0.0,10.0,496.0,-2218.0,4.0
35.0,-18.0,70.0,1.0,8.0,493.0,-2219.0,2.0
36.0,-9.0,66.0,1.0,10.0,500.0,-2386.0,6.0
42.0,-1.0,53.0,-2.0,13.0,511.0,-2442.0,12.0
55.0,12.0,30.0,-9.0,23.0,532.0,-2260.0,25.0
74.0,38.0,-6.0,-19.0,39.0,568.0,-2240.0,48.0
97.0,62.0,-47.0,-31.0,58.0,607.0,-2188.0,74.0
123.0,83.0,-91.0,-44.0,77.0,647.0,-1958.0,100.0
150.0,104.0,-133.0,-54.0,100.0,689.0,-1788.0,129.0
174.0,127.0,-174.0,-64.0,120.0,731.0,-1932.0,157.0
200.0,148.0,-216.0,-75.0,140.0,772.0,-1884.0,185.0
226.0,168.0,-257.0,-85.0,160.0,813.0,-1761.0,212.0
250.0,183.0,-294.0,-93.0,180.0,851.0,-1877.0,239.0
275.0,186.0,-326.0,-100.0,196.0,881.0,-1920.0,260.0
297.0,184.0,-351.0,-106.0,212.0,904.0,-1671.0,277.0
312.0,187.0,-371.0,-110.0,224.0,924.0,-1661.0,292.0
322.0,190.0,-385.0,-114.0,230.0,936.0,-1658.0,301.0
328.0,182.0,-389.0,-115.0,233.0,937.0,-1541.0,303.0
330.0,170.0,-385.0,-112.0,236.0,933.0,-1439.0,303.0
325.0,162.0,-374.0,-108.0,232.0,925.0,-1620.0,299.0
316.0,154.0,-359.0,-104.0,224.0,909.0,-1605.0,288.0
304.0,143.0,-339.0,-98.0,215.0,890.0,-1576.0,276.0
289.0,130.0,-312.0,-90.0,204.0,866.0,-1748.0,261.0
270.0,111.0,-281.0,-82.0,188.0,833.0,-1892.0,239.0
249.0,89.0,-244.0,-73.0,170.0,795.0,-1766.0,214.0
224.0,67.0,-202.0,-62.0,151.0,753.0,-1840.0,187.0
198.0,41.0,-158.0,-50.0,130.0,709.0,-1883.0,159.0
173.0,12.0,-114.0,-39.0,109.0,663.0,-1784.0,128.0
148.0,-9.0,-71.0,-28.0,90.0,621.0,-1688.0,102.0
121.0,-25.0,-29.0,-16.0,70.0,582.0,-1916.0,76.0
94.0,-44.0,10.0,-7.0,49.0,541.0,-1934.0,48.0
66.0,-60.0,39.0,-3.0,27.0,499.0,-1956.0,20.0
37.0,-83.0,45.0,-2.0,5.0,454.0,-2151.0,-8.0
11.0,-94.0,46.0,-2.0,-15.0,417.0,-2311.0,-34.0
-3.0,-81.0,45.0,-3.0,-25.0,405.0,-2126.0,-46.0
-4.0,-66.0,45.0,-3.0,-24.0,411.0,-2112.0,-43.0
6.0,-56.0,44.0,-3.0,-16.0,429.0,-2061.0,-32.0
21.0,-43.0,43.0,-5.0,-5.0,451.0,-1804.0,-17.0
35.0,-32.0,43.0,-5.0,6.0,473.0,-1700.0,-2.0
45.0,-22.0,44.0,-3.0,15.0,492.0,-1945.0,10.0
52.0,-15.0,44.0,-3.0,20.0,503.0,-1999.0,17.0
53.0,-13.0,44.0,-3.0,21.0,505.0,-1964.0,19.0
52.0,-12.0,45.0,-2.0,22.0,506.0,-2119.0,20.0
52.0,-11.0,45.0,-1.0,20.0,506.0,-2286.0,19.0
52.0,-12.0,44.0,-3.0,19.0,504.0,-2093.0,18.0
52.0,-13.0,44.0,-2.0,20.0,504.0,-2022.0,18.0
53.0,-13.0,44.0,-3.0,20.0,503.0,-2029.0,18.0
53.0,-14.0,42.0,-4.0,19.0,502.0,-1935.0,17.0
54.0,-14.0,42.0,-5.0,21.0,502.0,-1806.0,18.0
53.0,-13.0,43.0,-3.0,22.0,503.0,-2051.0,19.0
53.0,-13.0,43.0,-3.0,21.0,502.0,-2079.0,19.0
53.0,-13.0,44.0,-3.0,21.0,502.0,-2058.0,19.0
52.0,-12.0,45.0,-1.0,22.0,503.0,-2218.0,20.0
51.0,-12.0,45.0,-1.0,20.0,502.0,-2373.0,19.0
52.0,-12.0,44.0,-3.0,20.0,501.0,-2140.0,18.0
52.0,-12.0,44.0,-3.0,20.0,500.0,-2046.0,18.0
52.0,-12.0,44.0,-3.0,20.0,500.0,-2007.0,18.0
53.0,-13.0,42.0,-4.0,20.0,499.0,-1870.0,17.0
