Lead 1,Lead 2,Lead 3,Lead 4,Lead 5,Lead 6,Lead 7,Lead 8
-129,-129,-129,-129,-129,-129,-129,-129
109,174,227,11936,182,0,0,0
356,-26,193,-26,174,0,11981,182
354,-25,194,-25,175,0,11701,183
354,-24,194,-24,173,0,11331,183
355,-25,192,-25,172,0,11352,181
355,-26,192,-26,173,0,11276,181
354,-26,192,-26,173,0,11156,181
355,-26,191,-27,173,0,11091,180
355,-27,190,-28,173,0,11214,179
354,-26,191,-26,174,0,10920,181
354,-26,191,-26,173,0,10608,181
354,-26,192,-26,173,0,10427,181
353,-25,192,-25,174,0,10221,182
352,-24,193,-24,172,0,9843,182
352,-25,192,-25,171,0,9872,180
352,-25,191,-25,172,0,9807,180
352,-25,191,-26,172,0,9637,179
352,-26,190,-27,171,0,9608,179
353,-27,189,-28,172,0,9767,178
352,-26,191,-26,174,0,9497,180
352,-26,191,-26,173,0,9337,180
351,-26,191,-25,172,0,9329,180
351,-25,191,-25,172,0,9180,181
350,-24,192,-24,171,0,8848,181
350,-25,190,-25,170,0,8931,179
350,-25,190,-25,171,0,8923,179
350,-25,190,-26,170,0,8808,179
350,-26,189,-26,170,0,8746,178
351,-27,188,-27,171,0,8853,177
350,-26,189,-26,172,0,8541,179
350,-26,189,-25,171,0,8298,178
349,-26,189,-25,171,0,8213,179
348,-25,190,-24,172,0,7973,180
347,-24,191,-23,171,0,7540,180
348,-24,189,-25,169,0,7597,178
348,-25,189,-25,170,0,7599,177
348,-25,189,-25,170,0,7622,177
348,-26,188,-26,169,0,7665,177
349,-27,186,-28,169,0,7838,176
348,-26,188,-26,171,0,7665,178
348,-25,188,-25,170,0,7453,177
347,-25,188,-25,170,0,7369,178
347,-25,189,-24,170,0,7162,178
345,-23,190,-23,169,0,6806,178
345,-24,188,-24,168,0,6855,176
346,-25,188,-25,169,0,6874,176
346,-25,187,-25,169,0,6797,176
346,-25,187,-26,168,0,6776,176
347,-27,185,-27,169,0,6884,175
346,-26,187,-26,170,0,6707,177
345,-25,187,-25,169,0,6551,177
345,-25,187,-25,169,0,6482,176
344,-25,187,-24,169,0,6367,177
343,-23,189,-23,169,0,6043,178
344,-24,187,-25,166,0,6033,175
344,-25,187,-25,168,0,5973,176
344,-25,186,-25,168,0,5859,175
344,-25,185,-26,167,0,5943,175
344,-26,184,-27,168,0,6148,174
344,-26,185,-25,169,0,5957,176
343,-25,186,-25,168,0,5704,176
342,-25,186,-25,168,0,5628,176
342,-25,186,-24,168,0,5508,176
341,-23,187,-23,168,0,5112,176
341,-24,186,-24,165,0,5078,174
341,-24,186,-24,167,0,5147,174
341,-25,185,-25,167,0,5101,174
342,-25,184,-25,166,0,5028,173
343,-26,183,-27,166,0,5145,172
342,-25,184,-25,168,0,5007,175
341,-25,184,-25,167,0,4869,175
341,-25,185,-25,167,0,4871,175
340,-24,185,-24,167,0,4721,175
339,-23,186,-22,166,0,4337,176
339,-24,185,-24,165,0,4413,174
339,-24,185,-24,166,0,4481,173
339,-25,184,-25,165,0,4381,173
339,-25,183,-25,165,0,4391,172
340,-26,182,-27,165,0,4636,171
339,-25,183,-25,167,0,4587,173
339,-25,183,-25,166,0,4459,173
338,-25,183,-24,166,0,4529,173
338,-24,184,-23,166,0,4502,174
336,-23,185,-22,166,0,4188,174
336,-23,183,-24,164,0,4300,172
337,-24,183,-24,164,0,4445,172
337,-24,183,-24,165,0,4301,172
337,-25,182,-25,164,0,4163,171
338,-26,180,-27,164,0,4328,170
338,-25,182,-25,166,0,4252,172
337,-25,182,-24,165,0,4092,173
336,-25,182,-24,164,0,4062,172
336,-24,183,-24,165,0,3955,173
334,-23,184,-22,165,0,3635,174
335,-24,182,-23,162,0,3624,171
335,-24,182,-24,164,0,3729,171
335,-24,182,-24,163,0,3685,170
335,-24,181,-25,163,0,3675,170
336,-26,179,-27,163,0,3846,169
335,-25,181,-25,165,0,3746,171
335,-25,181,-24,164,0,3482,171
334,-24,181,-24,163,0,3423,171
334,-24,181,-24,163,0,3328,172
332,-23,183,-22,164,0,3030,172
332,-23,181,-24,162,0,3050,170
333,-24,181,-24,162,0,3226,170
334,-23,183,-23,163,0,3231,171
337,-21,187,-23,165,0,3258,174
339,-22,187,-24,167,0,3513,174
340,-21,190,-22,170,0,3497,178
343,-21,194,-21,171,0,3269,180
346,-22,198,-20,173,0,3208,183
348,-22,201,-19,175,0,3155,186
349,-20,205,-17,177,0,2847,189
351,-21,207,-18,176,0,2798,188
353,-22,208,-18,178,0,2903,189
353,-20,209,-18,178,0,2896,190
353,-19,209,-18,178,0,2911,190
355,-22,208,-20,179,0,3070,190
356,-22,210,-18,182,0,3061,192
355,-22,211,-18,181,0,3021,192
355,-21,210,-18,180,0,3112,192
355,-21,211,-17,181,0,3131,193
353,-21,212,-15,180,0,3009,193
353,-24,208,-17,178,0,3154,190
353,-25,207,-18,178,0,3453,190
353,-25,207,-19,179,-536,3498,190
353,-26,206,-19,177,-1348,3526,189
352,-25,203,-21,176,-2152,3762,187
351,-24,204,-20,178,-2943,3837,188
350,-24,205,-19,177,-3724,3594,188
349,-23,204,-19,176,-4497,3519,187
347,-24,201,-19,175,-5261,3470,186
345,-23,202,-17,176,-6013,3139,186
345,-24,200,-19,172,-6759,2997,184
343,-26,196,-20,171,-7496,3057,181
342,-25,195,-21,171,-8223,2964,180
340,-24,193,-21,169,-8940,2999,179
340,-26,190,-23,168,-9650,3273,176
338,-27,188,-23,168,-10349,3299,176
336,-25,188,-22,167,-11038,3047,176
334,-23,186,-22,165,-11720,2965,174
332,-24,185,-21,165,-12393,2861,174
328,-22,184,-20,163,-13058,2494,172
326,-21,181,-22,160,-13717,2414,169
325,-22,178,-23,159,-14366,2573,167
324,-23,176,-23,159,-15007,2556,166
324,-24,175,-24,158,-15639,2570,165
325,-25,173,-26,157,-16264,2761,163
324,-25,174,-25,159,-16877,2801,165
324,-24,175,-24,159,-17485,2617,166
323,-24,175,-24,158,-18085,2594,166
323,-23,175,-23,158,-18677,2574,166
321,-22,177,-22,159,-19261,2375,167
322,-22,175,-23,156,-19840,2351,165
322,-23,175,-23,157,-20411,2570,164
321,-23,174,-23,157,-20975,2567,164
322,-23,174,-24,157,-21532,2519,164
323,-25,172,-26,156,-22082,2638,162
322,-25,173,-25,158,-22624,2641,164
322,-24,174,-24,158,-23160,2370,164
322,-24,174,-23,157,-23689,2308,164
321,-24,174,-23,157,-24211,2234,165
319,-22,176,-21,158,-24726,1961,166
319,-22,175,-23,155,-25237,1949,164
320,-23,174,-23,156,-25740,2115,163
320,-23,173,-23,156,-26237,2107,163
320,-23,173,-24,156,-26728,2253,163
321,-25,171,-25,155,-27214,2755,161
321,-25,172,-25,157,-27692,3098,163
320,-24,173,-24,157,-28164,3037,164
319,-24,172,-23,156,-28631,3120,163
319,-23,173,-23,156,-29091,3137,164
317,-22,175,-21,157,-29545,2857,165
317,-22,173,-22,154,-29995,2707,163
318,-23,172,-23,155,-30440,2939,162
318,-23,172,-23,155,-30878,2980,162
317,-23,171,-23,154,-31311,3065,161
318,-24,170,-25,154,-31740,3308,160
319,-24,171,-25,156,-32161,3430,162
318,-24,172,-24,155,-32577,3270,163
317,-23,171,-23,155,32547,3343,162
315,-23,175,-22,153,32138,3411,160
308,-24,185,-19,150,31730,3186,156
303,-28,191,-17,144,31325,2984,149
298,-30,197,-17,140,30926,3103,143
294,-29,201,-16,138,30536,3047,140
296,-22,195,-19,139,30160,2964,143
303,-15,181,-24,144,29794,3126,149
314,-1,160,-29,155,29444,3288,164
332,25,125,-38,170,29113,3108,187
354,49,84,-49,189,28789,3166,213
380,72,42,-60,209,28471,3257,240
404,95,1,-69,230,28158,2898,269
429,117,-41,-81,247,27847,2383,295
455,137,-84,-93,268,27540,2386,321
482,156,-126,-103,289,27237,2339,348
508,170,-164,-113,308,26934,2319,374
533,172,-198,-121,326,26628,2478,396
555,171,-222,-126,343,26320,2554,416
569,175,-241,-129,354,26013,2231,431
578,178,-255,-132,361,25701,2121,440
584,172,-258,-132,364,25384,2160,444
585,162,-253,-128,366,25065,2068,444
580,153,-245,-125,360,24742,2006,437
572,144,-230,-122,353,24418,2282,426
560,133,-211,-117,344,24094,2334,413
546,119,-187,-111,333,23769,2413,398
529,99,-157,-104,318,23440,2456,376
507,77,-118,-93,302,23111,2433,353
481,57,-76,-82,282,22783,2096,327
455,32,-32,-69,260,22455,1989,298
429,4,14,-57,240,22130,2023,270
402,-16,57,-44,220,21814,1903,243
375,-34,97,-34,198,21501,1742,215
350,-53,137,-25,177,21192,1969,187
322,-70,166,-22,156,20886,2017,158
294,-93,171,-23,134,20579,2072,127
268,-107,170,-24,114,20283,2572,100
296,-32,173,-20,141,18886,2921,146
304,-25,172,-21,147,18662,3098,153
306,-24,172,-21,149,18432,3102,155
306,-24,171,-21,148,18201,3062,154
306,-25,170,-23,147,17973,3251,153
307,-26,169,-23,149,17749,3461,154
306,-25,171,-22,149,17528,3238,155
305,-24,171,-21,148,17309,3181,155
304,-24,171,-21,149,17093,3155,155
304,-23,172,-19,150,16880,2994,156
303,-23,172,-20,147,16669,2757,155
303,-24,170,-21,147,16460,2852,153
304,-24,170,-21,147,16255,2740,154
303,-24,170,-21,147,16051,2563,153
304,-25,168,-23,146,15849,2586,152
305,-25,168,-23,148,15652,2732,153
304,-24,170,-21,149,15458,2522,154
303,-24,169,-21,148,15265,2493,154
303,-24,169,-21,148,15074,2512,154
302,-23,171,-19,148,14887,2284,155
301,-22,170,-19,146,14701,1930,154
301,-23,169,-21,146,14516,2055,153
302,-24,169,-21,147,14335,2136,152
302,-24,169,-21,146,14156,2217,152
302,-25,167,-23,146,13978,2295,151
303,-25,167,-23,147,13803,2407,152
302,-24,168,-21,147,13633,2121,153
301,-24,168,-21,147,13462,2118,153
301,-24,168,-21,146,13294,2208,153
300,-23,170,-19,147,13129,2042,154
299,-22,170,-19,145,12965,1822,153
300,-23,168,-21,145,12802,2006,152
300,-24,168,-21,146,12642,2026,152
300,-23,168,-21,145,12484,2010,151
300,-24,166,-23,145,12327,2110,150
301,-25,166,-23,146,12173,2436,150
300,-24,167,-21,147,12022,2292,152
299,-24,167,-21,146,11872,2209,152
299,-24,167,-20,146,11724,2188,152
298,-23,169,-19,146,11579,2074,153
297,-22,168,-19,144,11434,1833,152
298,-23,168,-20,144,11291,1999,151
300,-22,171,-20,146,11153,2092,153
301,-22,171,-20,147,11014,2159,153
302,-22,171,-21,147,10877,2288,153
304,-22,173,-21,149,10743,2461,155
304,-21,175,-19,151,10612,2249,157
305,-22,177,-19,151,10480,2141,158
305,-23,177,-19,152,10349,2150,159
304,-22,178,-17,152,10221,2035,160
304,-21,180,-16,151,10095,1803,160
306,-21,180,-17,151,9970,1989,160
307,-20,181,-17,152,9846,2058,160
307,-21,181,-17,152,9723,2044,161
309,-23,180,-18,152,9602,2110,160
310,-25,180,-19,154,9483,2316,161
310,-22,183,-17,155,9367,2148,163
310,-20,184,-17,155,9251,2082,163
310,-20,185,-16,155,9136,2130,164
310,-20,187,-15,157,9024,2082,166
310,-20,188,-14,156,8912,1913,166
311,-20,189,-15,156,8801,2117,166
315,-18,193,-14,159,8696,2199,168
318,-17,197,-14,161,8591,2246,171
321,-16,200,-14,163,8487,2393,173
323,-16,201,-14,165,8383,2645,175
324,-13,205,-12,166,8282,2466,178
326,-11,210,-10,168,8183,2336,181
328,-9,214,-9,170,8085,2369,184
330,-7,220,-7,172,7989,2238,187
331,-4,224,-5,173,7894,1957,189
335,-6,225,-6,174,7797,2079,190
339,-6,229,-5,178,7704,2077,193
342,-4,233,-4,179,7611,1999,196
344,-3,236,-4,181,7520,2081,198
348,-2,240,-4,184,7430,2395,200
350,0,246,-1,187,7342,2316,205
352,0,249,0,188,7254,2284,207
354,0,252,0,190,7166,2341,210
355,1,255,1,191,7079,2229,211
356,3,258,2,192,6994,1856,213
357,2,257,1,191,6907,1938,212
359,0,258,1,193,6822,1991,213
360,0,258,1,193,6737,1965,213
360,0,258,0,193,6653,2047,213
363,0,259,0,195,6571,2316,214
363,0,262,1,197,6492,2204,216
362,0,262,2,196,6410,2173,216
361,0,261,2,195,6330,2237,216
358,0,259,2,194,6249,2138,215
356,0,258,2,193,6170,1872,214
356,-2,255,0,191,6090,2038,211
355,-3,252,0,190,6012,2159,209
354,-5,250,0,189,5934,2133,207
352,-5,246,-2,187,5857,2133,205
352,-9,243,-4,187,5781,2361,203
349,-8,242,-3,187,5708,2228,203
347,-11,239,-4,185,5634,2087,201
344,-11,235,-4,183,5560,2064,199
341,-10,233,-3,181,5489,2036,197
338,-11,231,-3,179,5417,1722,195
337,-15,226,-6,176,5345,1655,191
334,-18,220,-7,175,5273,1727,189
333,-21,217,-9,173,5204,1833,186
332,-25,212,-11,171,5136,1924,184
330,-28,207,-13,170,5066,2199,180
326,-27,205,-12,169,5001,2099,179
322,-24,203,-12,166,4937,1928,177
319,-23,200,-12,164,4872,1884,175
317,-24,199,-12,164,4810,1829,174
314,-23,197,-11,162,4748,1565,173
313,-25,194,-14,159,4685,1653,169
312,-24,192,-14,158,4626,1728,168
309,-24,188,-14,156,4565,1719,166
308,-25,186,-16,155,4505,1850,164
308,-25,183,-17,154,4447,2193,162
306,-25,182,-16,154,4390,2135,163
303,-25,180,-16,152,4334,2006,161
302,-24,179,-16,151,4279,2031,159
299,-22,178,-15,151,4225,1986,159
297,-22,177,-15,149,4171,1657,158
296,-23,174,-16,146,4115,1681,154
296,-23,173,-17,147,4063,1780,154
295,-26,171,-18,146,4010,1829,153
293,-26,168,-19,144,3958,2034,150
293,-26,166,-20,144,3906,2366,149
290,-24,165,-19,144,3857,2322,150
287,-23,162,-19,141,3807,2214,147
286,-23,161,-19,140,3758,2211,146
283,-21,161,-18,139,3711,2129,145
281,-19,162,-17,138,3665,1867,145
282,-20,160,-19,137,3617,1964,143
282,-20,159,-19,137,3571,2091,143
280,-22,156,-20,136,3524,2110,141
280,-23,154,-21,135,3478,2190,139
281,-24,153,-22,135,3434,2241,139
280,-24,154,-21,136,3392,1698,141
279,-23,155,-20,136,3350,1294,141
279,-23,154,-20,135,3309,1180,141
279,-22,155,-19,136,3268,1057,141
277,-22,156,-18,135,3228,800,142
278,-22,155,-19,133,3186,871,140
278,-22,154,-20,134,3146,968,139
278,-22,154,-20,134,3106,943,139
278,-23,153,-21,134,3067,998,139
279,-24,152,-23,134,3028,1289,138
278,-24,153,-21,135,2992,1264,140
277,-23,154,-20,135,2955,1132,140
277,-23,153,-20,135,2918,1143,140
276,-22,154,-19,134,2882,1111,140
275,-21,155,-17,135,2847,857,141
275,-22,154,-19,132,2810,903,139
276,-22,153,-19,133,2774,1031,138
276,-23,153,-20,133,2740,1046,138
276,-23,153,-21,132,2705,1122,138
277,-24,151,-22,133,2670,1371,137
277,-23,152,-20,135,2639,1323,139
276,-23,152,-20,134,2606,1149,139
276,-23,152,-20,133,2573,1170,139
275,-22,153,-19,134,2542,1151,140
274,-21,154,-18,134,2511,892,140
274,-21,153,-19,131,2478,997,138
274,-22,152,-19,132,2447,1202,138
274,-22,152,-20,132,2416,1170,138
275,-22,151,-20,132,2386,1201,137
275,-24,149,-22,132,2355,1462,136
275,-24,151,-21,134,2327,1395,138
274,-23,151,-20,133,2298,1094,138
273,-22,151,-20,133,2269,1038,138
273,-22,152,-19,133,2241,1031,138
272,-21,153,-18,132,2214,866,139
272,-21,152,-19,131,2185,967,137
273,-22,151,-20,132,2157,1201,136
272,-22,151,-20,132,2131,1246,137
273,-22,150,-21,131,2104,1288,136
273,-23,149,-22,131,2076,1520,135
273,-23,150,-20,133,2078,1497,137
272,-23,150,-20,132,2077,1319,137
272,-22,150,-20,132,2075,1270,137
272,-22,151,-19,132,2075,1125,138
270,-21,152,-17,132,2074,752,138
270,-21,151,-19,130,2072,705,136
271,-21,150,-19,130,2070,865,136
271,-22,150,-20,131,2069,854,136
271,-22,150,-20,131,2067,879,135
272,-23,148,-21,131,2065,1137,134
271,-23,149,-20,133,2065,1174,136
271,-23,149,-20,132,2064,845,136
270,-23,150,-19,131,2063,683,137
270,-22,150,-19,131,2062,735,137
269,-21,151,-17,131,2061,578,138
269,-21,150,-18,129,2059,606,136
270,-22,150,-19,130,2057,778,135
269,-21,149,-19,130,2056,769,135
270,-22,148,-20,129,2054,811,135
270,-23,147,-21,129,2052,1112,133
270,-23,148,-20,131,2052,1194,135
269,-22,148,-20,131,2051,1012,136
269,-22,148,-20,130,2050,968,135
268,-22,149,-19,131,2049,893,136
267,-20,151,-17,130,2049,636,137
267,-20,149,-18,128,2046,583,135
267,-21,148,-19,129,2044,730,134
268,-22,149,-19,129,2043,804,135
267,-22,148,-20,129,2041,893,134
268,-23,146,-21,129,2039,1087,133
268,-23,147,-20,130,2039,1076,134
267,-22,148,-19,130,2038,867,135
267,-22,148,-19,130,2037,870,135
267,-22,148,-19,130,2036,854,135
265,-20,150,-17,130,2036,580,136
265,-20,148,-18,128,2033,460,134
265,-21,147,-19,128,2031,586,134
265,-21,147,-19,128,2030,587,134
266,-22,147,-20,128,2028,658,133
267,-23,145,-22,127,2026,868,131
267,-23,146,-20,129,2026,913,133
266,-22,147,-19,129,2025,719,134
265,-22,147,-19,129,2024,681,134
265,-21,147,-19,129,2023,667,134
263,-20,149,-17,129,2023,421,135
263,-20,147,-18,127,2021,404,133
264,-21,147,-19,127,2019,709,133
264,-21,147,-19,128,2018,758,133
264,-21,146,-19,127,2016,765,132
265,-22,144,-21,127,2013,940,131
265,-23,145,-20,129,2013,1045,133
264,-22,146,-19,128,2012,967,133
263,-22,146,-19,128,2011,1009,133
263,-21,146,-19,128,2010,995,133
262,-20,148,-17,128,2010,793,134
262,-20,147,-18,126,2008,770,132
262,-21,146,-19,126,2006,997,132
262,-21,145,-19,127,2005,984,132
262,-21,145,-19,126,2003,957,132
263,-22,143,-21,126,2001,1132,130
263,-22,144,-20,128,2001,1222,131
262,-22,144,-19,127,2000,1050,132
262,-22,145,-19,127,1998,1116,132
261,-21,145,-19,127,1997,1148,132
261,-20,147,-17,127,1998,953,134
260,-20,146,-18,125,1995,884,132
261,-20,145,-18,125,1993,1094,131
261,-21,145,-19,125,1992,1113,131
261,-22,144,-19,125,1991,1090,131
262,-22,143,-21,125,1988,1218,129
262,-22,143,-20,127,1988,1305,131
261,-22,144,-19,127,1987,1038,132
261,-22,144,-19,126,1986,968,131
260,-21,144,-19,126,1985,943,131
259,-20,146,-17,127,1985,730,132
259,-20,145,-17,124,1983,575,131
259,-20,144,-18,125,1981,802,130
259,-20,144,-19,125,1980,862,130
259,-21,143,-19,125,1978,905,130
260,-22,142,-21,124,1976,1088,128
260,-22,142,-20,126,1975,1210,129
259,-22,143,-19,125,1975,1004,130
259,-21,143,-19,125,1973,975,130
258,-21,143,-19,125,1973,958,130
257,-20,145,-17,126,1973,772,132
257,-20,145,-17,124,1971,673,130
257,-20,143,-18,124,1968,907,130
258,-20,143,-19,124,1967,937,129
258,-21,142,-19,124,1966,934,129
258,-22,141,-21,123,1964,1064,128
259,-23,141,-20,125,1963,1179,129
258,-22,142,-19,125,1962,934,130
257,-22,142,-19,125,1961,843,129
257,-21,142,-18,125,1960,838,129
256,-20,144,-17,125,1960,677,131
255,-20,143,-17,123,1958,544,129
256,-20,142,-18,123,1956,907,128
256,-21,142,-18,123,1955,1068,128
256,-21,141,-19,123,1954,1172,128
256,-22,140,-20,122,1951,1370,127
257,-22,140,-20,124,1951,1549,128
256,-21,141,-18,124,1951,1358,129
255,-21,141,-19,123,1949,1324,129
255,-21,141,-18,123,1948,1374,128
254,-20,143,-17,124,1948,1262,130
254,-19,142,-17,122,1946,1122,128
254,-20,142,-18,122,1945,1325,128
257,-19,146,-17,125,1947,1353,131
259,-17,148,-17,126,1949,1411,132
261,-18,149,-17,127,1949,1548,133
264,-18,152,-17,131,1951,1685,136
266,-18,157,-15,133,1955,1493,140
270,-19,160,-14,135,1957,1416,143
271,-19,163,-13,136,1958,1410,144
272,-17,167,-11,139,1962,1294,147
273,-17,169,-11,138,1961,1074,148
274,-17,168,-12,138,1960,1203,147
274,-15,170,-11,139,1960,1209,148
275,-16,170,-12,140,1960,1233,149
278,-18,170,-13,140,1958,1380,148
279,-19,170,-13,142,1957,1608,149
277,-18,171,-12,142,1957,1443,150
277,-18,171,-12,141,1956,1407,150
277,-18,171,-12,141,1955,1415,150
276,-19,172,-10,142,1954,1284,151
275,-21,170,-11,139,1951,1097,149
276,-22,169,-12,139,1949,1293,148
276,-22,168,-13,140,1948,1346,148
274,-21,167,-13,138,1945,1353,147
273,-20,165,-14,137,1942,1456,145
274,-21,165,-14,138,1941,1635,145
273,-20,166,-13,139,1941,1427,146
271,-21,163,-14,136,1937,1345,145
269,-21,161,-14,136,1934,1303,143
268,-20,163,-12,137,1934,1125,145
266,-21,160,-12,134,1931,863,142
265,-22,157,-14,132,1926,1048,139
264,-21,155,-15,132,1923,1122,138
263,-20,154,-15,130,1921,1117,137
261,-22,150,-17,128,1916,1230,134
261,-23,148,-18,129,1914,1468,133
258,-20,148,-16,128,1912,1316,134
257,-20,147,-16,127,1910,1275,132
255,-21,144,-16,125,1906,1257,131
251,-18,143,-16,124,1904,1093,130
249,-17,142,-16,121,1901,848,128
248,-19,138,-17,119,1896,1053,125
247,-20,137,-18,120,1894,1107,124
248,-20,137,-18,119,1893,1132,124
248,-21,136,-20,118,1890,1289,122
248,-21,135,-20,120,1889,1562,123
248,-20,136,-18,121,1890,1402,125
247,-20,136,-18,120,1888,1342,124
247,-20,136,-17,119,1887,1296,124
246,-19,137,-16,120,1887,1150,125
245,-19,138,-16,119,1886,934,125
245,-19,136,-18,118,1883,1068,123
246,-20,136,-18,118,1882,1095,123
246,-20,136,-18,118,1881,1095,123
246,-21,135,-19,118,1879,1201,122
247,-21,134,-20,119,1877,1478,122
246,-20,135,-18,120,1877,1355,124
246,-20,135,-18,119,1877,1292,124
245,-20,135,-18,119,1875,1198,124
245,-19,137,-17,119,1875,946,124
244,-18,137,-16,118,1874,717,124
244,-19,135,-17,117,1872,894,122
244,-19,135,-17,118,1870,883,122
244,-20,135,-18,117,1869,889,122
245,-20,134,-19,117,1867,1057,121
245,-22,133,-20,118,1866,1359,121
245,-21,135,-18,119,1866,1175,123
244,-20,135,-18,118,1865,1067,123
244,-20,135,-18,118,1864,1060,122
243,-19,136,-17,119,1863,920,123
242,-18,136,-16,118,1862,684,123
243,-19,135,-17,116,1860,852,122
242,-19,135,-17,117,1859,919,122
243,-20,134,-18,117,1857,890,122
243,-20,133,-19,116,1855,919,120
244,-21,132,-19,117,1854,1090,121
243,-20,133,-18,118,1854,855,122
242,-20,134,-17,117,1852,744,121
237,-21,141,-16,113,1845,738,117
231,-24,150,-13,110,1837,636,112
225,-25,157,-10,105,1829,413,108
220,-27,163,-11,100,1820,583,101
220,-22,161,-12,100,1820,679,101
224,-14,151,-15,104,1828,740,107
233,-5,134,-20,111,1841,890,115
249,15,103,-30,124,1870,1165,134
270,41,66,-39,143,1909,1000,161
294,64,24,-50,162,1949,881,187
319,86,-18,-60,182,1990,895,215
344,109,-59,-70,203,2031,777,244
369,131,-100,-81,222,2072,519,271
395,151,-144,-93,241,2110,719,296
421,168,-184,-103,262,2148,858,323
446,177,-220,-111,281,2182,917,347
471,176,-249,-117,297,2207,1060,367
490,175,-272,-123,311,2227,1343,383
501,180,-287,-126,322,2245,1219,397
508,180,-296,-127,326,2251,1125,402
512,169,-295,-125,327,2249,1121,403
510,160,-287,-122,326,2242,983,401
503,153,-273,-117,321,2230,660,393
492,142,-257,-114,310,2209,795,380
480,129,-236,-108,301,2187,935,366
464,113,-208,-101,288,2157,989,348
443,92,-173,-92,272,2121,1101,324
421,69,-135,-83,254,2080,1371,298
394,46,-90,-70,235,2038,1230,273
368,19,-44,-57,213,1992,1103,244
341,-5,0,-45,192,1947,1100,215
315,-23,41,-33,172,1907,946,189
288,-40,83,-22,152,1866,499,162
262,-58,119,-17,129,1823,553,132
234,-79,134,-16,107,1777,559,102
206,-100,135,-17,85,1732,361,73
184,-99,135,-17,70,1706,392,54
177,-82,133,-18,65,1703,572,49
181,-70,135,-17,71,1715,425,59
194,-57,135,-16,81,1737,301,73
208,-44,135,-16,92,1759,397,88
220,-34,136,-15,103,1779,465,102
228,-24,137,-14,109,1794,302,113
232,-20,135,-15,110,1798,459,115
233,-21,134,-16,111,1797,604,115
233,-21,134,-16,111,1796,603,115
233,-21,134,-17,111,1794,620,114
235,-23,132,-18,111,1793,870,114
234,-22,133,-16,113,1793,791,116
233,-21,134,-16,112,1792,676,116
232,-21,134,-16,112,1791,681,116
232,-21,134,-15,112,1790,629,116
231,-19,136,-14,112,1790,360,117
231,-20,134,-15,110,1787,481,115
231,-20,134,-16,111,1786,650,115
231,-20,133,-16,111,1785,658,115
231,-21,132,-17,110,1783,636,114
232,-22,131,-18,111,1781,699,113
232,-22,133,-17,112,1781,505,115
231,-21,133,-16,111,1781,319,115
231,-21,133,-16,111,1780,272,115
231,-21,134,-15,111,1779,225,115
229,-19,135,-14,111,1778,-45,116
229,-20,133,-15,109,1776,32,114
230,-20,133,-16,110,1775,240,114
230,-21,132,-16,110,1774,276,113
230,-21,132,-17,109,1772,290,113
231,-22,130,-18,110,1770,510,112
230,-22,132,-16,112,1770,435,114
230,-21,132,-16,111,1769,228,114
229,-21,132,-16,110,1768,200,114
229,-20,133,-15,111,1768,102,115
228,-19,135,-13,111,1768,-188,116
228,-19,132,-15,108,1765,-113,113
228,-20,132,-16,109,1764,23,113
228,-20,132,-16,109,1762,35,113
229,-21,131,-16,109,1761,53,112
230,-22,129,-18,109,1759,250,111
229,-21,131,-17,111,1759,165,113
228,-21,131,-16,110,1758,37,113
228,-21,131,-16,110,1757,136,113
227,-20,132,-15,110,1757,235,114
227,-19,134,-13,110,1757,78,115
228,-18,134,-15,109,1756,207,114
229,-18,136,-14,111,1757,514,115
230,-18,135,-15,111,1756,644,115
231,-17,137,-15,112,1757,673,116
234,-18,137,-16,113,1757,926,116
235,-19,140,-14,116,1758,984,120
235,-20,141,-14,116,1758,754,121
235,-20,141,-14,116,1757,445,120
234,-19,142,-13,116,1757,107,121
234,-16,146,-11,117,1759,-439,123
236,-16,146,-12,115,1758,-358,122
236,-17,145,-12,117,1757,-285,122
237,-18,145,-12,117,1756,-409,123
239,-20,146,-13,117,1755,-358,123
240,-21,145,-14,118,1754,-80,123
240,-18,148,-12,120,1756,-78,125
240,-17,149,-11,120,1756,-170,126
241,-18,150,-11,120,1756,-295,127
241,-18,151,-11,121,1756,-371,128
241,-16,153,-9,122,1757,-316,130
243,-15,156,-9,121,1757,114,130
246,-14,159,-9,124,1761,529,132
249,-12,164,-8,127,1764,737,135
251,-11,166,-8,128,1766,891,137
253,-12,166,-9,129,1765,1177,137
256,-10,172,-7,132,1769,1212,141
258,-7,177,-5,134,1773,1053,144
260,-5,181,-3,136,1776,990,147
262,-3,186,-2,138,1779,902,150
264,-1,191,0,140,1783,608,154
267,-2,193,0,140,1784,566,154
271,-2,196,0,143,1786,730,157
273,0,201,0,145,1790,679,160
276,1,205,1,147,1792,681,162
280,1,207,1,149,1794,914,164
282,2,212,2,153,1798,919,168
284,2,215,4,155,1800,749,171
285,3,218,4,155,1802,753,172
287,4,220,5,157,1803,779,174
287,6,224,7,158,1805,535,177
288,5,223,6,156,1803,485,175
290,3,223,6,158,1803,696,176
291,2,224,6,159,1802,754,176
292,3,225,6,159,1803,830,177
294,3,225,4,160,1802,1079,177
293,3,226,5,162,1802,1093,179
293,4,227,6,161,1801,832,179
291,3,224,6,160,1799,747,177
289,2,223,6,159,1796,728,176
288,1,223,7,159,1795,531,177
286,0,219,5,155,1790,511,173
286,-1,216,4,155,1786,631,172
284,-2,214,3,154,1783,574,170
283,-3,211,2,152,1779,550,167
282,-5,207,0,150,1775,721,165
280,-7,205,0,151,1772,771,165
277,-9,202,0,150,1768,597,163
275,-8,199,0,147,1764,598,160
272,-8,196,0,145,1760,572,159
269,-10,194,0,144,1757,378,158
267,-13,189,-1,140,1751,346,153
265,-16,184,-3,139,1745,461,150
264,-20,181,-4,138,1740,390,148
261,-22,176,-6,135,1735,365,145
259,-25,171,-9,133,1729,560,141
257,-23,169,-8,133,1727,653,141
253,-21,167,-7,131,1724,507,139
250,-21,164,-8,129,1720,485,137
231,-20,143,-11,116,1688,323,121
229,-20,142,-10,115,1686,58,121
227,-19,140,-11,112,1683,-83,118
228,-21,138,-12,112,1680,50,117
226,-23,136,-13,111,1677,106,115
225,-22,134,-14,110,1674,250,114
225,-22,131,-15,108,1671,551,112
222,-21,129,-15,109,1668,705,111
219,-21,128,-15,107,1666,551,110
218,-19,127,-15,105,1664,508,109
216,-18,126,-14,104,1662,421,109
215,-16,128,-12,105,1662,78,110
214,-16,127,-13,103,1660,-43,108
214,-18,123,-15,102,1656,159,105
212,-19,121,-15,101,1653,168,104
212,-20,121,-16,101,1652,140,104
213,-21,119,-17,101,1649,282,102
213,-21,119,-17,102,1649,388,104
212,-20,121,-16,102,1649,171,104
212,-20,121,-16,101,1648,113,104
212,-20,121,-15,102,1647,37,105
211,-18,123,-14,102,1647,-188,106
210,-18,122,-14,99,1645,-211,104
211,-19,121,-15,100,1644,93,103
211,-19,120,-15,100,1642,159,103
211,-19,120,-15,100,1641,131,103
212,-21,119,-17,100,1639,253,102
212,-21,119,-16,101,1639,369,103
211,-20,120,-15,101,1638,198,104
211,-20,120,-15,101,1637,199,103
210,-19,120,-15,101,1636,164,104
209,-18,121,-13,101,1637,-9,105
209,-18,121,-14,99,1635,-98,104
210,-19,120,-15,99,1634,192,102
210,-19,120,-15,100,1632,289,103
210,-19,120,-15,99,1631,261,103
211,-20,118,-17,99,1629,370,101
211,-20,118,-16,101,1628,482,102
210,-20,119,-16,101,1628,346,103
210,-20,119,-15,100,1627,375,103
209,-19,119,-15,100,1627,377,103
208,-18,121,-13,101,1627,245,104
208,-18,120,-14,99,1625,119,103
208,-19,119,-15,99,1623,300,102
208,-19,119,-15,99,1622,265,102
209,-19,118,-16,99,1621,216,102
209,-20,117,-17,98,1618,414,101
209,-21,117,-16,100,1618,678,102
208,-20,118,-15,100,1618,584,103
208,-20,118,-15,99,1617,582,103
208,-20,118,-15,100,1616,537,102
207,-19,120,-13,100,1617,331,104
206,-18,119,-13,98,1615,255,102
207,-19,119,-15,98,1613,500,101
207,-19,118,-15,99,1612,469,101
207,-19,118,-15,99,1611,430,101
208,-20,117,-16,98,1609,581,100
208,-21,117,-17,99,1608,821,101
207,-20,118,-15,100,1608,650,102
207,-20,118,-15,99,1607,602,102
207,-20,118,-14,99,1606,558,102
206,-18,119,-13,99,1606,344,103
205,-17,119,-14,98,1604,119,102
206,-18,118,-14,98,1603,220,101
206,-19,117,-15,98,1602,218,101
206,-19,117,-15,98,1600,154,100
207,-20,116,-16,97,1598,237,99
207,-21,116,-16,99,1598,477,100
206,-19,117,-15,99,1598,338,101
206,-19,117,-15,98,1597,326,101
205,-19,117,-15,98,1596,482,101
204,-18,118,-13,99,1596,584,102
204,-18,118,-13,97,1595,507,101
204,-18,117,-14,96,1592,777,100
205,-19,116,-15,97,1591,861,100
204,-19,116,-15,97,1590,928,100
205,-20,115,-16,97,1588,1124,99
206,-21,115,-16,98,1588,1387,100
205,-20,116,-15,99,1588,1185,101
204,-19,116,-15,98,1587,1141,101
204,-19,116,-15,98,1586,1201,101
203,-18,118,-13,99,1586,1037,102
202,-17,118,-13,97,1585,759,101
203,-18,116,-14,96,1583,878,100
204,-18,116,-15,97,1581,855,99
204,-19,116,-15,96,1580,812,99
204,-20,115,-16,96,1579,1001,98
205,-21,114,-16,98,1578,1245,99
204,-19,115,-15,98,1578,1053,100
203,-19,115,-15,97,1577,1001,100
203,-19,116,-14,97,1576,1032,100
202,-18,117,-13,98,1576,935,101
201,-17,117,-13,96,1575,744,100
202,-18,116,-14,95,1573,941,99
202,-18,115,-14,96,1572,965,99
202,-19,115,-15,96,1571,965,99
202,-20,113,-16,95,1568,1197,97
203,-20,113,-17,96,1567,1548,98
202,-20,114,-15,97,1568,1329,100
202,-19,114,-15,96,1567,1189,99
201,-19,115,-14,96,1566,1106,99
201,-18,116,-13,97,1566,886,101
200,-17,116,-13,96,1565,647,100
200,-18,115,-14,95,1563,893,98
201,-19,115,-14,96,1562,1028,99
201,-19,114,-15,96,1561,1111,98
201,-19,113,-16,94,1559,1245,97
202,-20,112,-16,96,1557,1492,97
201,-19,114,-15,97,1558,1315,99
201,-19,114,-14,96,1557,1278,98
200,-19,114,-14,95,1556,1348,99
200,-18,115,-13,96,1556,1278,100
199,-17,116,-13,95,1556,1054,99
199,-18,114,-14,94,1553,1257,98
199,-18,114,-14,95,1552,1350,98
199,-18,114,-14,94,1551,1236,97
200,-19,113,-16,94,1549,1068,96
200,-20,112,-16,95,1548,989,97
199,-19,113,-15,96,1549,572,98
199,-19,113,-14,95,1547,367,98
199,-19,113,-14,95,1547,280,98
198,-18,115,-13,96,1547,75,99
197,-17,115,-13,95,1545,-280,99
198,-18,113,-14,93,1543,-204,97
198,-18,113,-14,94,1542,-147,97
198,-19,113,-14,94,1541,-192,97
198,-19,112,-16,93,1539,-109,96
199,-20,111,-16,94,1538,120,96
198,-19,113,-14,96,1539,-44,98
198,-19,113,-14,95,1538,-77,97
198,-19,112,-14,95,1537,-7,98
197,-18,114,-13,95,1537,-82,99
196,-17,114,-12,94,1536,-392,98
197,-18,113,-14,93,1534,-215,96
197,-18,112,-14,94,1533,-123,96
197,-18,112,-14,93,1532,-205,96
197,-19,111,-15,93,1530,-187,95
198,-20,110,-16,94,1528,0,95
197,-19,111,-15,95,1529,-191,97
196,-19,112,-14,94,1528,-301,97
196,-19,112,-14,94,1527,-307,97
196,-18,113,-13,95,1527,-489,98
195,-17,113,-12,94,1527,-789,97
195,-18,112,-14,92,1524,-554,96
195,-18,111,-14,93,1523,-421,96
195,-18,111,-14,93,1522,-480,95
196,-19,110,-15,92,1520,-412,95
197,-20,109,-16,93,1519,-69,94
196,-19,111,-15,94,1519,-153,96
195,-18,111,-14,94,1518,-175,96
195,-18,111,-14,93,1517,-237,96
194,-17,112,-13,94,1517,-462,97
193,-16,113,-12,93,1517,-718,97
194,-17,111,-14,92,1514,-299,95
194,-17,111,-14,93,1513,47,95
194,-17,111,-14,93,1512,111,95
194,-18,110,-15,92,1511,170,95
195,-20,109,-16,92,1509,449,94
195,-19,110,-15,94,1510,397,96
194,-19,110,-15,92,1509,382,96
194,-18,110,-14,92,1508,393,96
193,-18,111,-13,93,1508,216,96
192,-16,113,-12,93,1508,-96,96
194,-16,113,-13,92,1508,-3,96
197,-15,117,-12,95,1511,76,99
199,-14,119,-12,96,1512,107,100
201,-14,121,-12,97,1513,192,102
205,-16,123,-13,100,1515,520,104
208,-17,128,-10,104,1519,471,109
209,-16,131,-10,105,1520,324,110
211,-16,134,-9,107,1522,199,113
213,-15,137,-8,109,1525,4,115
213,-14,139,-6,109,1526,-294,116
214,-12,139,-7,107,1525,-169,115
214,-12,140,-7,109,1525,-90,116
216,-14,140,-7,110,1524,-105,116
217,-15,140,-8,110,1523,-94,116
218,-16,139,-10,110,1522,137,115
217,-16,141,-8,112,1522,79,117
217,-16,141,-8,111,1521,8,117
216,-16,140,-8,111,1520,-25,117
216,-18,139,-7,111,1518,-159,118
214,-18,140,-6,110,1518,-498,118
215,-19,138,-7,109,1515,-449,116
215,-18,137,-8,109,1513,-319,115
213,-17,136,-8,107,1511,-256,114
213,-17,135,-9,107,1509,-149,113
213,-18,134,-10,107,1507,123,112
213,-18,134,-9,108,1507,68,113
210,-19,131,-9,106,1504,-33,111
209,-19,131,-9,106,1502,-40,111
208,-19,130,-9,105,1501,-174,111
205,-19,129,-8,104,1498,-534,110
205,-19,126,-10,101,1495,-467,106
203,-18,124,-10,100,1492,-312,105
201,-18,122,-11,99,1489,-397,103
200,-20,119,-12,98,1486,-396,101
200,-20,117,-14,97,1483,-186,100
198,-18,117,-12,97,1482,-300,101
196,-18,115,-12,95,1479,-476,100
193,-17,112,-13,94,1476,-457,97
191,-16,112,-12,93,1474,-560,96
188,-15,111,-11,91,1472,-880,95
187,-16,108,-13,89,1468,-816,92
188,-17,107,-13,89,1466,-717,92
188,-18,107,-13,89,1465,-723,92
188,-18,106,-14,89,1464,-613,91
189,-19,104,-16,89,1462,-317,90
189,-19,106,-14,91,1462,-310,92
188,-18,106,-14,90,1462,-406,92
187,-18,106,-14,89,1461,-381,92
187,-17,107,-13,90,1460,-417,93
186,-16,108,-11,90,1460,-682,94
185,-17,107,-13,88,1458,-632,92
186,-17,106,-14,88,1457,-499,91
186,-17,106,-14,88,1456,-535,91
187,-18,105,-14,88,1454,-525,90
188,-19,104,-16,88,1453,-289,90
187,-19,106,-14,90,1453,-348,92
186,-18,106,-14,89,1453,-530,92
186,-17,106,-13,89,1452,-556,92
186,-17,106,-13,90,1451,-572,92
185,-16,108,-11,89,1451,-752,93
185,-17,106,-12,87,1449,-655,91
185,-17,106,-13,88,1448,-496,91
186,-17,106,-13,88,1447,-541,91
186,-18,105,-14,88,1446,-511,90
187,-19,104,-15,88,1444,-279,89
186,-18,105,-14,89,1444,-297,91
185,-18,105,-14,89,1444,-424,91
185,-18,105,-14,89,1443,-376,91
185,-17,105,-13,89,1442,-417,91
184,-16,107,-11,89,1442,-679,92
184,-17,106,-13,87,1440,-654,90
184,-17,105,-13,87,1439,-529,90
184,-17,105,-13,87,1438,-567,90
184,-18,104,-14,87,1436,-543,90
186,-19,102,-16,87,1434,-307,89
185,-18,104,-14,89,1435,-49,90
181,-18,108,-13,86,1430,9,87
175,-21,116,-11,81,1421,107,82
170,-23,124,-8,78,1414,88,78
164,-23,133,-5,74,1407,-177,74
161,-22,134,-6,70,1402,-118,69
163,-15,127,-9,73,1408,92,73
170,-7,114,-13,78,1419,130,80
182,8,90,-20,88,1441,188,95
203,33,51,-32,104,1476,396,116
227,57,11,-42,125,1517,374,145
251,80,-29,-52,145,1558,171,173
277,101,-72,-63,165,1598,167,200
302,124,-114,-73,186,1639,20,228
326,146,-155,-83,206,1681,-363,256
352,165,-197,-94,223,1719,-434,281
379,177,-235,-104,244,1755,-284,306
404,180,-266,-111,262,1785,-367,329
424,179,-291,-116,277,1807,-563,347
440,180,-312,-122,287,1824,-525,359
449,183,-323,-124,296,1836,-531,370
454,176,-325,-122,299,1838,-727,373
455,165,-320,-119,298,1833,-679,371
450,157,-310,-116,294,1823,-641,366
439,149,-292,-110,287,1807,-893,356
427,138,-273,-106,276,1785,-958,342
414,123,-249,-100,265,1759,-827,325
395,103,-216,-91,250,1726,-836,304
372,82,-178,-82,232,1687,-805,279
348,58,-139,-72,212,1644,-592,251
322,32,-92,-59,193,1600,-607,224
295,6,-46,-46,172,1554,-837,195
269,-14,-4,-35,151,1513,-923,168
243,-32,36,-24,131,1472,-1021,141
215,-49,78,-13,110,1432,-1176,115
188,-66,103,-12,86,1387,-1158,84
160,-90,106,-12,64,1340,-1024,54
135,-100,107,-12,46,1305,-1093,30
121,-86,106,-12,37,1295,-1106,20
121,-72,105,-14,37,1300,-871,22
132,-61,106,-13,48,1319,-798,36
146,-47,107,-12,59,1343,-1023,52
159,-36,106,-12,70,1364,-1028,66
169,-26,106,-12,78,1381,-976,78
175,-18,108,-10,83,1392,-1129,86
176,-18,107,-11,82,1392,-1123,85
176,-18,106,-12,82,1390,-1002,85
176,-18,106,-12,83,1390,-1013,85
176,-19,106,-13,82,1388,-982,84
177,-20,104,-14,82,1386,-751,83
177,-19,105,-13,84,1386,-605,85
176,-19,105,-12,83,1386,-816,85
177,-19,105,-12,83,1385,-830,85
176,-19,106,-12,84,1385,-920,86
175,-17,107,-10,84,1385,-1211,87
174,-17,106,-11,82,1383,-1311,85
175,-18,105,-12,82,1382,-1161,84
175,-18,105,-12,82,1381,-1160,84
175,-18,105,-12,82,1380,-1170,84
176,-20,103,-14,81,1377,-1040,83
176,-20,104,-13,83,1378,-993,84
175,-18,104,-12,83,1378,-1152,85
175,-18,104,-12,83,1377,-1133,85
175,-18,105,-12,83,1376,-1169,85
174,-17,107,-10,83,1376,-1350,86
173,-17,106,-11,81,1374,-1395,84
174,-18,105,-11,81,1373,-1224,84
174,-18,104,-11,82,1372,-1232,84
174,-18,104,-12,81,1371,-1197,83
175,-19,102,-13,81,1369,-1003,82
175,-20,103,-13,83,1369,-920,84
174,-19,104,-12,82,1369,-1060,84
174,-18,104,-12,82,1368,-970,84
173,-18,104,-11,82,1367,-956,84
172,-17,106,-10,83,1368,-1149,85
172,-17,105,-10,81,1366,-1260,84
172,-18,104,-12,80,1364,-1089,83
173,-18,104,-11,81,1364,-1155,83
172,-18,104,-12,81,1363,-1220,83
173,-19,102,-13,81,1361,-1056,82
174,-19,102,-13,83,1360,-953,83
173,-18,103,-12,82,1360,-1128,84
173,-18,103,-12,81,1359,-1153,83
172,-18,103,-11,82,1359,-1208,84
172,-16,107,-9,83,1361,-1418,86
173,-14,108,-9,82,1361,-1483,86
174,-15,108,-10,83,1360,-1219,86
175,-15,109,-10,84,1361,-1161,87
177,-14,111,-10,85,1362,-1129,88
179,-16,110,-11,85,1361,-952,87
181,-18,112,-11,88,1362,-826,89
180,-18,113,-10,88,1362,-1008,91
180,-17,113,-9,88,1361,-977,91
180,-16,115,-9,88,1362,-1015,92
181,-14,119,-7,90,1365,-1287,95
181,-14,118,-7,88,1364,-1444,93
182,-15,118,-8,89,1362,-1311,93
183,-17,119,-8,90,1362,-1313,94
185,-17,119,-8,90,1362,-1288,94
185,-16,119,-9,90,1362,-1141,94
186,-15,120,-9,92,1362,-1058,95
186,-15,122,-7,93,1363,-1303,97
187,-16,123,-7,93,1363,-1377,98
187,-16,124,-7,93,1363,-1430,98
187,-14,128,-5,96,1366,-1609,101
189,-11,132,-4,96,1369,-1704,102
193,-11,135,-4,98,1371,-1501,105
196,-9,139,-3,100,1374,-1537,107
197,-8,140,-3,101,1376,-1569,108
200,-8,142,-4,102,1376,-1426,109
203,-7,146,-2,105,1380,-1284,113
205,-4,152,0,108,1384,-1411,117
208,-2,156,0,110,1388,-1331,120
210,-1,161,2,112,1391,-1293,123
212,0,165,4,115,1395,-1424,126
214,0,168,4,115,1397,-1492,128
218,1,172,4,117,1399,-1178,129
220,2,176,5,119,1403,-1113,132
223,4,180,6,121,1406,-1107,135
227,5,183,5,123,1408,-992,136
230,3,186,6,127,1411,-718,140
232,5,190,8,129,1414,-782,143
232,6,192,9,129,1414,-744,144
234,7,194,9,130,1416,-714,146
234,8,197,11,131,1418,-907,148
235,7,198,11,131,1418,-1134,148
236,5,196,10,131,1416,-894,147
237,5,197,10,132,1417,-757,148
239,6,200,10,133,1418,-676,149
240,6,199,9,133,1417,-550,148
240,5,199,9,134,1416,-485,149
238,6,198,10,134,1415,-800,150
236,5,196,10,132,1411,-881,148
236,3,195,9,131,1410,-830,147
234,2,194,10,131,1408,-850,147
232,2,192,9,128,1404,-918,145
231,0,188,8,126,1400,-709,142
229,0,186,7,126,1397,-707,140
228,-1,183,6,125,1394,-676,138
227,-3,179,4,123,1390,-517,135
226,-6,176,3,123,1385,-216,134
222,-6,173,3,121,1383,-320,133
219,-5,170,3,119,1378,-333,130
218,-8,167,2,117,1374,-319,128
215,-10,165,2,116,1371,-500,127
212,-12,160,2,113,1366,-747,124
211,-16,156,0,111,1361,-504,121
210,-19,152,-1,110,1356,-336,118
207,-21,147,-2,107,1351,-255,115
204,-22,143,-4,105,1346,-168,112
202,-20,140,-5,105,1343,-47,110
199,-19,139,-4,103,1341,-279,110
197,-19,137,-4,102,1338,-359,108
195,-20,135,-4,100,1335,-332,107
193,-20,133,-4,100,1333,-402,106
190,-17,132,-3,98,1331,-579,104
188,-18,128,-5,95,1326,-391,101
187,-19,126,-6,95,1324,-336,99
186,-18,124,-6,93,1321,-276,98
185,-20,120,-8,91,1317,-112,95
184,-20,118,-9,91,1314,73,94
182,-19,118,-7,91,1313,-92,95
180,-17,117,-7,89,1311,-108,94
178,-19,115,-8,88,1309,-99,92
176,-18,114,-7,88,1307,-165,92
174,-17,114,-6,86,1305,-388,91
174,-20,110,-9,84,1301,-207,88
173,-20,108,-9,84,1299,-70,87
172,-19,107,-10,83,1297,1,86
170,-18,104,-11,81,1293,147,83
169,-19,100,-12,80,1289,363,81
167,-18,101,-11,80,1289,116,81
165,-16,100,-11,78,1287,45,80
164,-16,99,-11,78,1286,64,80
163,-15,101,-9,79,1286,-74,81
161,-14,100,-9,77,1284,-281,80
161,-16,96,-11,74,1280,-139,77
160,-17,95,-12,75,1278,-142,76
160,-17,95,-12,75,1277,-174,76
161,-18,94,-12,75,1275,-146,75
162,-19,93,-13,75,1274,0,75
161,-18,95,-12,76,1275,-229,77
160,-18,95,-11,75,1274,-365,77
160,-17,95,-11,75,1273,-309,76
159,-17,95,-10,75,1273,-343,77
158,-16,96,-10,75,1273,-540,77
159,-17,95,-11,74,1271,-388,76
159,-17,95,-11,74,1270,-325,76
159,-17,94,-12,74,1269,-336,75
160,-18,93,-12,74,1268,-147,75
160,-19,92,-13,74,1267,124,74
159,-18,94,-12,75,1267,1,76
159,-18,94,-12,75,1266,-100,76
159,-17,94,-12,75,1265,-71,76
158,-17,95,-10,75,1265,-184,77
157,-16,96,-9,74,1265,-479,77
158,-16,94,-11,73,1263,-408,76
158,-17,94,-11,74,1262,-497,75
158,-17,94,-12,73,1261,-722,75
158,-17,93,-12,73,1259,-743,74
159,-19,92,-13,74,1258,-630,74
159,-18,93,-12,75,1259,-851,76
158,-18,93,-11,74,1258,-972,76
158,-17,93,-11,74,1257,-924,75
157,-16,94,-10,75,1257,-938,76
156,-15,95,-9,74,1257,-1034,76
156,-16,93,-11,72,1255,-750,75
157,-17,93,-11,73,1254,-593,75
157,-17,93,-12,73,1253,-564,75
158,-18,92,-13,72,1252,-423,74
159,-19,91,-13,73,1250,-95,73
158,-18,92,-12,74,1251,-223,75
157,-17,92,-12,74,1250,-308,75
157,-17,93,-11,74,1249,-267,75
156,-17,93,-10,74,1250,-298,76
155,-15,94,-9,74,1249,-506,76
156,-16,93,-11,72,1247,-358,74
156,-17,93,-11,73,1247,-289,74
156,-17,93,-11,73,1246,-235,74
157,-17,92,-12,72,1244,-3,73
157,-18,90,-13,73,1242,360,73
156,-18,92,-12,74,1243,255,75
156,-17,92,-11,73,1242,146,75
156,-17,92,-11,73,1242,155,75
155,-17,93,-10,74,1242,62,76
154,-15,94,-10,73,1241,-220,76
155,-16,92,-11,72,1239,-110,74
155,-17,92,-11,72,1238,-23,74
156,-17,92,-11,72,1237,-50,74
155,-17,91,-12,72,1236,-10,73
156,-18,90,-13,73,1235,194,72
155,-18,91,-12,74,1235,57,74
155,-17,91,-12,73,1235,-22,74
155,-17,92,-11,73,1234,-53,74
154,-16,93,-10,73,1234,-225,75
154,-15,94,-9,73,1234,-449,75
154,-16,92,-10,71,1232,-285,73
154,-16,91,-11,72,1231,-257,73
154,-17,91,-11,72,1230,-486,73
154,-17,91,-12,71,1229,-456,73
156,-18,89,-13,72,1227,-98,72
155,-18,91,-12,73,1227,-139,73
154,-17,91,-11,73,1227,-167,73
154,-17,91,-11,73,1226,-28,73
154,-17,92,-10,73,1226,25,74
152,-15,93,-9,72,1226,-225,75
153,-16,91,-10,71,1224,-193,73
153,-16,91,-11,71,1223,-71,73
153,-17,91,-11,71,1222,-46,73
153,-17,90,-12,71,1221,-54,72
154,-18,89,-13,71,1219,146,72
154,-18,90,-12,73,1220,42,73
153,-17,90,-11,72,1219,-77,73
153,-17,90,-11,72,1218,-40,73
152,-16,91,-10,72,1218,-163,74
151,-15,92,-9,72,1218,-551,75
152,-16,91,-10,71,1216,-578,72
152,-16,91,-10,71,1216,-623,72
152,-16,90,-11,71,1214,-705,72
152,-17,89,-11,70,1213,-681,72
153,-18,88,-13,70,1211,-529,71
153,-17,89,-11,72,1212,-636,72
151,-16,90,-11,71,1208,-1111,72
151,-16,89,-11,71,1207,-1044,72
151,-17,89,-12,70,1205,-915,71
152,-18,88,-13,70,1204,-679,70
153,-17,91,-11,73,1206,-712,73
155,-14,95,-10,74,1209,-804,76
156,-13,98,-9,75,1212,-750,78
157,-12,100,-8,77,1213,-817,80
159,-11,105,-5,79,1217,-1136,83
163,-13,107,-6,80,1218,-1083,84
166,-14,110,-6,83,1221,-899,87
168,-14,112,-5,84,1222,-826,88
171,-14,115,-6,86,1224,-704,90
174,-17,114,-7,87,1223,-461,90
174,-14,117,-5,88,1226,-519,93
173,-11,118,-4,88,1226,-645,94
174,-12,120,-4,89,1226,-622,94
174,-13,121,-4,89,1227,-725,95
173,-12,122,-2,90,1227,-1100,97
174,-12,121,-4,87,1225,-1128,95
174,-13,120,-4,88,1224,-931,94
174,-13,120,-5,88,1223,-887,94
174,-16,118,-6,88,1220,-833,93
175,-20,115,-7,87,1218,-585,91
175,-19,117,-6,89,1218,-478,93
174,-18,117,-5,89,1218,-599,93
172,-16,116,-5,87,1216,-628,92
171,-15,116,-5,87,1215,-664,92
170,-14,117,-3,87,1215,-911,93
169,-14,115,-4,85,1213,-841,91
168,-16,112,-6,84,1209,-682,89
168,-17,110,-6,83,1206,-769,87
167,-17,109,-7,83,1205,-661,87
166,-20,106,-9,81,1201,-245,84
165,-20,105,-8,82,1200,-8,84
163,-17,104,-7,80,1198,-2,83
161,-17,103,-7,79,1196,7,82
160,-18,101,-8,78,1193,-46,81
157,-16,101,-7,78,1192,-221,81
155,-14,98,-8,74,1189,-134,78
154,-15,96,-8,74,1186,56,77
152,-16,93,-9,72,1183,74,74
150,-14,91,-10,70,1180,105,72
150,-16,88,-12,69,1176,301,70
148,-17,86,-12,70,1174,332,70
148,-16,86,-11,69,1173,172,70
147,-16,86,-10,69,1172,190,70
146,-16,87,-10,69,1172,223,70
145,-15,88,-8,69,1173,0,71
145,-15,87,-10,67,1171,-14,70
146,-15,86,-10,68,1170,182,69
146,-15,86,-11,68,1169,211,69
146,-16,86,-11,67,1168,254,69
147,-17,84,-13,67,1166,477,68
147,-17,85,-11,69,1166,394,69
146,-16,86,-11,69,1166,-8,70
146,-16,86,-10,69,1165,-170,70
146,-16,86,-10,69,1165,-70,70
144,-15,88,-8,69,1166,-167,71
144,-15,87,-10,67,1163,-150,69
145,-15,86,-10,68,1162,54,69
145,-16,86,-11,68,1162,90,69
146,-16,85,-11,67,1160,128,68
146,-17,83,-13,67,1158,337,67
146,-17,84,-11,69,1159,401,69
146,-16,85,-11,69,1159,240,69
146,-16,85,-11,68,1158,258,69
145,-16,86,-10,69,1158,200,69
144,-14,87,-9,69,1158,-20,71
143,-14,86,-10,66,1156,-22,69
144,-15,86,-10,67,1155,104,68
145,-16,85,-10,67,1155,67,68
145,-16,85,-11,67,1153,80,68
146,-17,83,-13,66,1151,277,66
146,-17,84,-11,68,1152,349,68
145,-16,85,-11,68,1152,167,69
144,-16,85,-11,68,1151,70,68
144,-16,85,-10,68,1150,-1,69
143,-15,86,-8,68,1151,-241,70
143,-15,85,-9,66,1149,-299,69
142,-15,87,-10,65,1145,-120,66
137,-17,94,-8,61,1137,-181,61
132,-21,101,-7,57,1129,-269,55
127,-24,107,-7,53,1120,-187,49
123,-24,113,-5,52,1115,-165,48
123,-16,109,-5,52,1120,-360,50
128,-8,98,-9,57,1130,-325,57
138,4,79,-14,65,1148,-246,69
154,30,46,-22,81,1183,-352,91
177,54,5,-34,97,1221,-334,115
203,76,-37,-45,117,1261,-93,142
229,97,-79,-57,138,1302,-67,170
255,119,-122,-68,158,1342,-32,197
281,139,-166,-81,177,1382,227,223
307,159,-207,-91,199,1423,379,251
332,175,-245,-99,218,1461,122,278
357,181,-278,-106,237,1493,38,302
379,180,-304,-111,253,1518,44,322
394,184,-323,-114,266,1539,-102,337
405,187,-338,-118,272,1552,-137,346
412,182,-344,-119,276,1556,64,350
415,170,-341,-117,278,1552,81,350
412,160,-334,-115,275,1542,125,345
405,151,-321,-112,267,1526,284,334
393,141,-301,-107,261,1508,317,323
379,128,-277,-99,249,1485,93,309
362,110,-246,-91,235,1454,56,289
340,89,-209,-81,218,1417,28,266
314,69,-167,-69,199,1378,-208,241
288,44,-123,-57,176,1333,-383,211
263,16,-78,-46,156,1286,-192,181
237,-7,-35,-34,136,1243,-176,153
211,-25,4,-24,116,1202,-155,126
185,-45,44,-16,95,1160,4,98
158,-61,76,-11,75,1119,136,70
129,-83,86,-10,52,1073,-85,41
102,-99,87,-9,32,1032,-128,14
84,-90,87,-9,20,1016,-219,1
79,-71,89,-7,18,1020,-464,2
87,-60,88,-8,23,1035,-558,10
101,-48,87,-9,34,1057,-218,25
115,-37,87,-9,46,1079,-58,40
127,-28,87,-9,55,1096,38,52
136,-20,85,-11,61,1108,204,60
138,-18,85,-11,64,1112,264,63
138,-18,86,-9,64,1112,9,64
138,-18,86,-9,64,1111,83,64
137,-17,86,-9,64,1111,154,64
136,-16,88,-7,64,1111,-142,65
136,-16,88,-8,62,1110,-368,64
136,-16,87,-9,62,1108,-198,64
136,-17,86,-9,63,1107,-161,63
137,-17,86,-9,62,1107,-138,63
137,-18,84,-11,62,1105,-10,61
137,-18,85,-10,63,1105,146,63
137,-18,86,-9,64,1105,36,64
136,-17,86,-9,63,1104,60,63
136,-17,86,-9,63,1104,105,64
135,-16,88,-7,64,1104,-16,65
134,-15,87,-8,62,1103,-143,64
135,-16,86,-9,62,1102,53,63
136,-17,86,-9,63,1101,92,63
136,-17,85,-9,62,1100,73,62
136,-18,84,-11,61,1098,147,61
137,-18,84,-11,62,1098,253,62
136,-17,85,-9,63,1098,42,64
135,-17,85,-9,63,1097,55,63
136,-17,85,-9,63,1097,119,64
134,-15,87,-7,63,1097,-24,64
134,-15,87,-7,61,1096,-286,63
135,-16,85,-9,61,1095,-108,62
135,-17,85,-9,62,1094,-87,62
136,-17,85,-9,62,1093,-194,62
136,-18,84,-11,61,1091,-137,61
136,-18,84,-10,63,1091,15,62
135,-17,85,-9,63,1091,-234,63
135,-17,85,-9,62,1090,-209,63
135,-17,85,-9,62,1090,-72,63
133,-16,86,-7,63,1090,-141,64
133,-15,86,-7,61,1089,-311,63
134,-16,85,-9,61,1087,-134,62
134,-16,85,-9,62,1087,-134,62
134,-17,84,-9,61,1086,-153,62
135,-17,84,-10,62,1085,-18,61
137,-17,86,-10,64,1087,172,64
137,-15,88,-8,65,1089,-28,66
137,-14,90,-8,65,1089,-135,66
138,-13,92,-7,66,1091,-145,68
139,-13,95,-5,68,1093,-229,70
140,-14,96,-5,67,1093,-403,70
141,-15,95,-6,67,1091,-215,70
141,-15,95,-6,68,1091,-194,70
142,-15,95,-6,68,1091,-143,70
144,-15,97,-7,68,1092,255,70
146,-15,97,-7,70,1092,486,72
145,-15,99,-6,71,1092,27,73
145,-15,99,-6,71,1092,-166,73
146,-16,100,-6,72,1093,-254,74
146,-14,102,-4,73,1094,-398,76
145,-11,104,-2,72,1095,-520,76
147,-12,104,-4,72,1094,-271,76
149,-14,105,-4,73,1094,-219,76
149,-14,105,-4,73,1093,-245,76
151,-14,105,-5,73,1094,-181,77
154,-14,109,-5,77,1097,0,80
156,-11,114,-2,80,1102,-192,84
158,-9,119,-1,81,1105,-274,87
159,-7,122,0,82,1108,-317,88
160,-6,125,1,85,1110,-431,91
162,-3,130,2,85,1113,-588,93
166,-2,132,2,86,1116,-394,95
169,0,137,3,89,1119,-285,97
172,0,141,4,91,1123,-128,100
175,0,143,3,92,1124,39,102
179,-1,145,3,96,1127,251,105
180,1,151,6,98,1132,-81,109
183,3,156,7,100,1135,-360,112
185,5,160,8,102,1139,-326,115
187,8,166,11,105,1144,-258,118
189,8,169,12,106,1146,-267,120
193,7,171,11,107,1147,102,121
194,7,173,11,109,1149,251,123
196,8,175,12,110,1150,263,124
198,8,175,11,110,1150,362,124
200,5,176,10,112,1150,519,125
200,6,177,12,114,1151,304,128
200,6,178,12,113,1151,232,128
201,7,181,13,114,1153,227,129
201,8,183,14,115,1155,157,131
200,10,184,15,114,1154,-10,131
200,9,181,14,113,1151,113,129
199,7,178,12,112,1148,60,127
199,5,177,12,111,1146,40,126
199,2,174,10,111,1143,247,124
198,1,171,9,110,1139,612,123
195,0,170,10,110,1138,629,123
193,0,168,10,108,1135,665,121
192,0,166,9,107,1132,686,120
189,0,164,10,106,1130,565,119
187,-2,162,9,104,1127,266,117
185,-4,157,7,101,1121,419,113
183,-3,154,6,100,1118,509,110
181,-5,150,5,98,1113,476,108
180,-9,145,3,96,1108,517,105
178,-13,140,1,95,1103,635,103
175,-15,138,1,95,1100,414,102
174,-18,134,0,93,1096,363,100
171,-20,130,0,91,1091,405,97
168,-19,128,0,89,1088,366,95
164,-16,126,1,86,1086,189,93
161,-15,122,0,83,1081,389,89
160,-17,119,-1,83,1078,494,88
159,-18,117,-2,81,1075,495,86
157,-19,114,-3,79,1071,503,84
156,-19,111,-4,79,1069,650,82
153,-17,110,-3,79,1067,422,82
152,-18,107,-4,76,1064,275,80
150,-18,107,-4,76,1062,246,80
148,-17,106,-3,75,1060,232,79
145,-17,104,-3,73,1058,57,77
144,-16,101,-4,71,1055,246,74
143,-16,100,-4,71,1053,376,74
142,-17,97,-5,70,1050,392,72
141,-17,94,-7,68,1047,506,69
141,-18,92,-8,68,1045,750,68
139,-20,92,-7,68,1043,584,69
138,-19,91,-7,66,1041,443,68
136,-18,90,-7,66,1040,415,67
133,-16,90,-6,65,1039,282,67
130,-15,87,-6,62,1036,6,65
129,-15,84,-7,60,1032,178,61
128,-15,82,-8,60,1030,217,60
127,-14,81,-8,59,1028,110,59
128,-14,81,-9,59,1027,110,59
129,-16,79,-10,59,1025,-83,58
126,-16,78,-9,59,1023,-62,58
125,-16,77,-9,57,1022,220,57
125,-16,77,-9,56,1021,410,57
124,-16,78,-8,57,1021,423,58
122,-15,79,-7,57,1021,148,58
123,-15,77,-8,55,1019,199,56
123,-16,77,-9,56,1019,329,57
124,-16,77,-9,56,1018,338,56
124,-17,76,-10,56,1016,383,56
125,-18,74,-11,56,1015,632,55
125,-17,76,-9,57,1015,494,57
124,-16,76,-9,56,1015,301,57
124,-16,77,-9,57,1014,226,57
124,-16,77,-8,57,1015,162,58
122,-14,79,-7,57,1015,71,58
122,-15,77,-8,55,1012,393,56
123,-15,76,-9,56,1012,599,56
123,-16,76,-9,56,1011,633,56
123,-16,75,-10,55,1010,707,55
124,-17,74,-11,55,1008,979,54
123,-17,76,-10,57,1009,940,57
123,-16,76,-9,57,1008,915,56
123,-15,76,-9,56,1008,1013,56
122,-15,77,-8,57,1008,894,57
121,-14,78,-7,56,1009,553,58
122,-15,76,-8,54,1006,665,56
122,-15,76,-8,55,1006,829,56
122,-16,75,-9,55,1004,849,55
122,-16,75,-9,55,1004,934,55
124,-17,74,-11,55,1002,1196,54
123,-17,75,-9,57,1003,1068,56
123,-16,75,-9,56,1002,894,56
122,-16,75,-9,56,1002,870,56
122,-15,76,-8,57,1002,768,57
120,-14,78,-7,56,1002,467,57
121,-15,76,-8,54,1000,535,55
121,-15,76,-9,55,999,659,55
122,-15,76,-9,55,999,661,55
122,-16,75,-9,55,998,707,55
123,-17,73,-11,55,996,931,54
123,-17,74,-9,56,997,803,56
122,-16,75,-9,56,996,581,56
121,-16,75,-9,56,996,516,56
120,-15,76,-8,56,996,401,57
120,-14,77,-7,56,996,117,57
120,-15,76,-8,54,994,212,55
121,-15,75,-8,55,993,349,55
121,-16,75,-8,55,992,315,55
121,-16,74,-9,54,991,331,54
122,-17,73,-11,54,990,547,54
121,-16,74,-9,56,990,605,56
121,-16,75,-9,56,990,646,55
121,-16,74,-9,55,989,797,55
120,-15,75,-8,55,989,823,56
119,-14,77,-6,56,990,568,57
119,-15,75,-8,53,988,610,54
120,-15,75,-8,54,987,833,55
120,-16,75,-8,55,987,1075,55
120,-16,74,-9,54,986,1268,54
121,-17,73,-11,54,983,1538,53
121,-17,74,-10,56,984,1536,55
120,-16,74,-9,55,984,1431,55
120,-15,74,-9,55,983,1513,55
119,-15,74,-8,55,983,1516,56
118,-14,76,-6,55,984,1234,56
118,-14,74,-8,53,981,1234,54
119,-15,74,-8,54,981,1353,54
119,-15,74,-9,54,980,1323,54
119,-15,73,-9,54,979,1341,54
120,-17,71,-11,54,977,1572,53
120,-17,73,-9,56,978,1575,55
120,-16,73,-9,55,977,1402,55
119,-16,73,-9,55,977,1371,55
119,-15,74,-8,55,977,1325,55
118,-14,75,-6,55,977,1095,56
118,-14,74,-7,53,975,1134,54
118,-15,74,-8,54,975,1332,54
119,-15,73,-8,54,974,1354,54
119,-15,73,-9,53,973,1375,53
120,-16,71,-10,53,971,1623,52
120,-16,72,-10,55,972,1635,54
119,-16,73,-9,55,971,1464,55
118,-15,73,-8,54,971,1504,54
118,-15,73,-8,55,971,1495,55
117,-14,75,-6,55,971,1224,56
117,-14,74,-8,53,969,1180,54
117,-15,73,-8,53,968,1313,54
118,-15,73,-8,54,968,1268,54
118,-15,72,-9,53,967,1290,53
119,-17,71,-10,53,965,1541,52
119,-16,72,-9,55,965,1597,54
118,-15,73,-9,54,965,1435,54
118,-15,73,-8,54,965,1471,54
117,-15,73,-8,54,964,1442,54
116,-14,75,-7,54,965,1187,56
116,-14,74,-7,52,963,1187,53
116,-15,73,-8,53,962,1411,53
117,-15,73,-8,54,962,1430,53
117,-15,72,-9,53,961,1430,52
118,-17,70,-11,52,959,1663,52
118,-16,72,-10,55,960,1744,54
117,-16,72,-9,54,960,1596,54
117,-15,72,-9,54,959,1592,54
117,-15,72,-8,54,958,1476,54
115,-13,74,-6,54,959,1126,55
116,-14,73,-7,52,957,992,53
116,-15,72,-8,53,956,1101,53
116,-15,72,-8,53,956,1028,53
116,-15,72,-9,53,955,1004,52
117,-16,70,-10,52,953,1171,51
117,-16,71,-9,54,953,1219,53
117,-16,72,-9,54,953,989,53
116,-15,72,-9,53,953,905,53
116,-15,72,-8,53,953,798,54
115,-14,74,-6,54,953,588,55
115,-14,73,-7,52,951,627,53
115,-14,72,-8,52,950,872,53
115,-15,72,-8,53,950,913,53
115,-15,71,-9,52,949,929,52
117,-17,70,-10,52,947,1135,51
116,-17,71,-9,54,947,1226,52
116,-16,71,-8,54,947,1021,53
116,-15,71,-8,53,946,989,53
115,-15,71,-8,53,946,973,53
114,-14,73,-7,53,947,760,55
114,-14,72,-8,51,945,748,52
115,-14,71,-8,51,944,1015,52
115,-15,71,-8,52,943,975,52
115,-15,71,-9,51,943,991,52
116,-16,69,-10,51,941,1252,51
116,-16,70,-10,53,941,1412,52
115,-15,71,-8,53,941,1177,53
114,-15,71,-8,52,941,717,53
114,-15,71,-8,53,940,297,53
113,-14,73,-6,53,941,22,54
113,-14,72,-7,51,940,273,52
114,-14,71,-8,51,938,755,52
114,-14,71,-8,52,938,894,52
114,-15,71,-8,51,937,888,52
115,-16,69,-10,51,935,714,50
115,-16,70,-9,53,935,324,52
114,-16,71,-8,52,936,-155,52
114,-15,70,-8,52,935,-298,52
114,-15,71,-8,52,934,-358,52
113,-13,72,-6,53,935,-611,54
112,-13,71,-7,51,934,-782,52
113,-14,71,-8,51,933,-641,51
113,-15,71,-8,52,932,-658,51
113,-14,70,-9,51,931,-512,51
114,-15,68,-10,51,929,71,50
114,-16,69,-10,52,929,237,51
114,-15,70,-9,52,930,-123,52
113,-15,70,-8,52,929,-195,52
113,-15,70,-7,52,929,-196,52
112,-13,72,-6,52,929,-333,53
111,-13,71,-7,50,928,-393,52
112,-14,70,-8,51,926,-174,51
112,-14,70,-8,51,926,-189,51
113,-14,70,-8,51,925,-240,51
114,-16,68,-10,50,923,-102,50
114,-16,68,-10,52,923,25,51
113,-15,70,-8,52,924,-269,52
112,-15,69,-8,51,923,-383,52
112,-15,70,-8,52,923,-383,52
111,-13,71,-6,52,924,-553,53
111,-13,71,-6,50,922,-670,52
111,-13,70,-8,50,921,-864,51
112,-14,70,-8,51,920,-927,51
112,-14,69,-8,51,919,-464,51
113,-16,68,-10,50,918,275,49
113,-16,68,-9,52,918,764,51
112,-15,69,-8,52,918,751,51
112,-15,69,-8,51,918,830,51
112,-15,69,-8,51,917,927,51
110,-13,71,-6,52,918,820,53
110,-13,70,-6,50,916,738,51
111,-14,69,-8,50,915,1008,50
111,-14,69,-8,50,915,1075,50
111,-15,69,-8,50,914,1090,50
112,-15,67,-10,50,912,1213,49
113,-16,67,-10,52,912,1316,50
113,-14,70,-8,53,914,1066,52
115,-12,74,-7,54,917,1100,55
117,-11,77,-6,56,920,1151,57
117,-9,81,-3,58,923,1012,60
119,-9,84,-3,58,925,837,61
124,-11,86,-4,60,927,984,63
127,-12,90,-4,63,929,961,65
129,-12,92,-3,64,931,896,66
132,-13,93,-4,65,932,976,68
134,-14,94,-4,67,933,1156,69
133,-11,97,-3,68,935,989,72
133,-9,98,-2,68,936,1020,72
134,-10,99,-1,69,936,1125,73
135,-11,102,0,70,937,1009,75
134,-10,101,0,69,936,729,74
134,-11,100,-1,68,935,888,73
134,-11,100,-2,68,934,896,73
135,-12,99,-2,68,933,874,73
136,-15,97,-4,68,930,1002,71
136,-18,96,-4,69,929,1218,71
135,-17,97,-3,69,929,1045,72
134,-16,96,-3,68,928,982,72
132,-14,96,-3,67,927,979,71
131,-12,97,-1,67,927,825,72
130,-12,97,-1,66,926,613,71
130,-13,95,-2,65,924,868,69
129,-14,92,-3,65,921,998,67
128,-15,90,-4,64,919,1045,66
128,-16,88,-5,63,917,1152,65
127,-18,86,-6,63,914,1346,64
125,-17,85,-5,63,913,1114,64
123,-15,84,-4,61,911,1010,63
122,-15,83,-4,60,909,1013,62
119,-14,82,-4,59,907,894,61
117,-13,80,-4,56,905,690,59
116,-13,78,-5,54,902,901,57
115,-13,76,-6,55,900,939,56
113,-14,73,-7,53,897,950,54
111,-13,70,-8,51,893,1129,51
111,-14,68,-9,51,891,1385,50
109,-15,67,-8,50,890,1192,50
108,-14,66,-8,49,889,1101,49
108,-14,66,-7,49,888,1076,50
107,-13,68,-6,50,888,929,51
106,-12,68,-6,49,888,615,50
107,-13,67,-8,48,886,699,49
107,-14,66,-8,49,886,670,49
108,-14,66,-8,48,885,630,48
108,-15,65,-9,47,883,733,47
109,-16,64,-10,49,882,963,48
108,-15,66,-8,50,883,773,49
107,-14,66,-8,49,883,686,49
107,-14,66,-8,49,882,671,49
106,-14,67,-6,50,883,541,50
105,-12,67,-6,48,882,329,49
106,-13,66,-8,47,880,541,48
106,-13,66,-8,48,880,579,48
106,-14,66,-8,48,879,533,48
107,-14,65,-9,48,878,599,47
108,-15,64,-10,49,877,806,47
107,-15,65,-8,50,878,590,49
106,-14,66,-8,48,877,475,49
106,-14,66,-7,49,877,500,49
106,-13,67,-6,49,877,421,50
105,-12,68,-6,48,877,190,50
105,-13,66,-7,47,875,377,48
106,-13,65,-7,48,875,457,48
105,-13,65,-8,48,874,473,48
106,-14,64,-9,47,872,571,46
108,-15,63,-10,48,871,856,47
107,-14,65,-8,49,872,711,48
106,-14,65,-8,48,871,613,48
106,-14,65,-8,48,871,621,48
105,-13,67,-7,49,872,556,49
90,-23,87,-4,35,842,1040,30
85,-22,94,-1,33,838,913,28
84,-14,90,-3,33,841,828,29
89,-6,79,-6,37,851,844,36
99,6,61,-10,47,870,710,49
116,31,28,-18,60,904,456,70
139,55,-13,-31,77,942,610,94
164,77,-55,-42,98,983,674,121
190,99,-97,-54,118,1024,714,149
216,120,-141,-66,138,1064,881,175
243,140,-184,-78,159,1104,1206,202
268,161,-224,-87,180,1146,1077,231
293,177,-263,-96,200,1184,987,257
318,183,-296,-103,219,1217,1029,281
340,183,-322,-107,234,1243,955,301
355,186,-342,-110,245,1263,664,316
367,188,-358,-115,252,1276,825,325
374,184,-364,-116,258,1280,951,330
376,172,-361,-115,259,1277,926,330
374,162,-354,-113,256,1267,998,324
367,153,-341,-110,250,1252,1276,315
355,143,-320,-103,243,1235,1130,305
342,130,-297,-97,231,1211,978,290
324,113,-266,-89,217,1180,925,270
301,93,-228,-78,200,1144,793,247
276,72,-187,-66,180,1105,396,221
251,46,-144,-56,158,1059,349,191
225,18,-98,-43,138,1014,311,162
200,-5,-55,-32,118,971,278,134
174,-23,-15,-23,97,930,535,106
149,-43,23,-14,77,888,989,79
121,-59,58,-7,57,848,950,53
92,-80,67,-7,34,801,802,22
65,-97,68,-7,14,760,763,-4
46,-88,68,-6,2,744,691,-17
40,-69,70,-4,0,748,401,-17
49,-59,68,-6,4,762,520,-10
64,-47,68,-6,16,785,714,5
78,-35,68,-6,27,807,780,20
90,-27,67,-7,36,824,857,31
99,-20,66,-8,43,836,1104,40
101,-16,67,-7,46,842,1054,44
100,-15,67,-6,45,841,961,44
100,-15,67,-6,45,840,799,44
100,-14,68,-5,45,840,-3,45
98,-13,70,-4,45,841,-366,45
99,-14,68,-6,43,839,76,43
99,-15,67,-7,44,838,377,43
99,-15,67,-7,44,837,454,43
99,-15,66,-7,44,837,551,43
101,-16,65,-8,44,835,761,42
100,-16,67,-7,46,836,635,44
100,-15,67,-7,45,836,450,44
100,-15,67,-6,45,835,457,44
99,-15,68,-5,45,835,424,45
98,-13,69,-4,44,836,164,45
98,-14,67,-6,42,833,212,43
99,-15,67,-6,43,833,329,43
99,-15,67,-6,44,832,385,43
99,-15,66,-7,43,831,459,42
100,-16,64,-9,43,830,732,42
99,-16,66,-7,45,831,657,44
99,-15,67,-6,45,831,521,44
99,-15,67,-6,44,830,530,44
98,-15,67,-5,45,830,470,44
97,-13,69,-4,45,831,207,45
97,-14,67,-6,43,828,259,43
98,-14,66,-6,43,828,375,43
98,-14,66,-6,43,827,404,43
98,-15,66,-7,43,826,485,42
99,-16,64,-8,43,825,736,41
99,-16,66,-7,45,826,667,43
98,-15,66,-6,44,825,-44,43
98,-15,66,-6,44,825,-1169,44
97,-15,66,-5,44,825,-1834,44
96,-13,68,-4,45,826,-2277,45
97,-14,67,-6,43,823,-2302,43
97,-14,66,-6,43,822,-2271,43
98,-14,66,-6,43,822,-2374,43
97,-14,65,-7,43,821,-2342,42
99,-16,64,-8,43,820,-2027,42
101,-14,68,-6,46,823,-2046,45
101,-13,70,-5,46,824,-2199,46
101,-13,71,-5,47,825,-2191,47
102,-11,74,-4,48,827,-2209,49
102,-10,77,-2,49,829,-2409,51
104,-12,77,-3,48,829,-2372,50
105,-13,76,-4,49,828,-2251,50
105,-13,76,-4,49,827,-2255,50
106,-14,77,-4,49,827,-2242,50
108,-14,77,-5,51,828,-2043,51
108,-13,79,-3,53,830,-2075,53
108,-12,80,-3,52,830,-2183,54
109,-13,81,-3,53,830,-2099,54
110,-14,82,-2,54,831,-2071,56
109,-12,85,0,55,832,-2288,57
109,-9,85,-1,53,832,-2267,55
111,-10,85,-1,54,832,-2189,56
113,-12,86,-2,55,832,-2241,57
113,-13,86,-2,55,832,-2185,57
115,-13,86,-3,56,832,-1962,57
117,-11,91,-1,60,837,-2028,61
119,-9,96,0,61,841,-2230,65
122,-7,100,1,63,845,-2289,68
123,-5,104,2,65,847,-2356,70
124,-3,107,4,66,850,-2628,73
126,-2,110,4,65,852,-2650,73
129,0,114,5,69,856,-2523,76
133,0,118,6,71,859,-2001,79
136,2,122,6,73,863,-963,81
140,0,124,5,75,864,-130,82
143,0,128,7,79,868,138,86
144,2,133,9,81,872,126,90
147,5,138,10,83,876,286,93
149,7,143,12,85,881,325,96
151,10,149,14,87,885,116,100
154,9,150,14,87,887,-114,100
157,9,153,14,90,889,-230,102
158,9,155,14,91,890,24,104
160,10,156,14,92,892,196,105
162,9,156,13,93,892,469,105
164,8,159,14,96,894,462,108
164,8,160,15,95,894,256,109
164,8,160,15,95,894,218,109
165,9,163,16,97,896,120,111
165,11,166,18,98,898,-191,113
165,11,165,16,95,896,-181,110
165,10,163,16,96,895,73,110
164,8,161,15,95,892,121,108
163,7,159,14,94,889,172,107
164,3,155,12,93,885,374,105
162,3,154,12,93,884,394,105
160,2,152,13,92,882,206,104
158,3,150,13,90,879,206,102
156,1,148,12,90,877,118,101
153,2,148,13,89,875,-147,101
152,0,143,11,86,870,-203,97
151,-2,139,10,84,866,-19,94
148,-1,136,9,82,863,-16,92
146,-3,131,7,80,858,-16,89
145,-8,126,5,79,853,177,86
143,-11,123,5,79,850,227,85
140,-12,120,4,77,846,10,83
139,-16,116,3,75,842,12,81
136,-18,113,2,73,838,29,79
131,-16,111,4,72,835,-177,77
129,-14,107,3,68,831,-209,73
126,-14,104,2,66,827,-57,70
125,-15,101,0,65,824,-176,69
124,-16,99,0,63,821,-283,67
123,-18,95,-1,62,817,-253,64
122,-17,94,-1,63,817,-376,65
119,-16,92,-1,61,814,-591,64
117,-17,90,-1,60,812,-561,62
115,-15,89,-1,59,810,-558,61
112,-14,88,0,57,809,-756,61
111,-15,85,-1,54,805,-823,57
110,-15,84,-2,54,803,-635,56
108,-14,82,-2,53,801,-604,55
107,-15,79,-3,52,798,-537,53
107,-17,75,-5,50,795,-328,51
106,-16,75,-5,51,794,-277,51
105,-18,75,-4,51,792,-501,51
103,-17,73,-4,49,790,-571,50
102,-16,72,-4,48,789,-714,49
99,-14,73,-3,47,789,-1021,49
96,-13,68,-4,44,784,-1118,45
95,-14,66,-5,43,781,-958,43
93,-13,65,-5,42,779,-878,42
93,-12,64,-6,41,778,-885,41
94,-13,62,-7,41,776,-715,40
94,-14,62,-7,42,776,-565,40
92,-14,60,-6,41,774,-665,40
90,-14,59,-7,40,772,-556,39
90,-14,60,-6,40,772,-501,39
89,-13,61,-4,41,773,-790,40
89,-13,60,-5,38,771,-980,39
89,-14,60,-6,38,770,-814,38
89,-14,59,-6,39,769,-965,38
90,-14,59,-7,39,769,-1138,38
91,-15,57,-8,38,767,-1033,37
91,-15,58,-8,40,767,-868,38
89,-14,59,-7,40,768,-1074,39
89,-14,59,-6,40,767,-1138,39
89,-14,59,-6,40,767,-1151,39
88,-13,61,-4,40,768,-1203,40
88,-13,60,-5,38,767,-1189,38
88,-13,59,-6,38,765,-950,38
89,-14,59,-6,39,765,-858,38
89,-14,59,-7,39,764,-755,37
90,-15,57,-8,38,762,-567,37
90,-16,58,-7,40,763,-469,38
89,-15,58,-7,40,763,-683,38
89,-14,58,-6,39,762,-634,38
89,-14,59,-6,39,763,-569,39
88,-13,60,-4,40,763,-743,40
88,-13,60,-5,38,762,-893,39
88,-13,59,-6,38,760,-719,38
88,-14,59,-6,39,760,-713,38
88,-14,58,-6,38,759,-689,37
89,-15,57,-8,38,758,-523,36
89,-15,57,-8,39,757,-400,37
89,-14,58,-7,39,758,-597,38
89,-14,58,-7,39,758,-635,38
88,-14,58,-6,39,757,-639,38
87,-13,60,-4,40,758,-793,39
87,-13,60,-5,38,757,-920,38
88,-13,58,-6,37,756,-697,37
88,-14,59,-6,38,755,-733,37
88,-14,58,-7,38,754,-786,37
89,-15,56,-8,37,753,-664,36
89,-15,57,-8,39,753,-515,37
88,-14,58,-6,40,753,-700,38
88,-14,58,-6,39,753,-704,38
88,-14,58,-6,39,752,-668,38
87,-13,60,-4,40,753,-795,40
87,-13,59,-5,38,752,-937,38
87,-13,58,-6,37,751,-702,37
87,-13,58,-6,38,751,-654,37
87,-13,58,-7,37,750,-641,37
88,-15,56,-8,37,748,-562,36
88,-15,56,-8,39,748,-370,37
88,-14,57,-7,39,749,-491,38
88,-14,57,-7,38,748,-415,38
87,-14,58,-6,39,748,-296,38
87,-13,59,-5,40,749,-410,39
86,-12,59,-5,38,748,-645,38
87,-13,58,-6,37,746,-484,37
87,-13,58,-6,38,746,-489,37
87,-14,57,-6,38,745,-480,37
88,-15,56,-8,37,744,-207,36
88,-15,56,-8,39,743,83,36
87,-14,57,-6,39,744,-30,38
87,-14,57,-6,39,743,-107,37
87,-14,58,-6,39,743,-116,38
87,-13,59,-5,39,743,-340,39
86,-12,59,-5,37,743,-620,38
86,-13,58,-6,37,741,-439,36
87,-13,58,-6,38,741,-385,37
86,-14,57,-6,37,740,-377,37
87,-14,56,-8,37,739,-300,36
88,-15,56,-8,38,738,-213,36
87,-14,57,-7,39,739,-958,37
86,-14,56,-6,38,739,-1585,37
86,-13,57,-6,38,738,-1733,37
85,-13,58,-4,39,739,-1588,39
85,-12,58,-4,37,738,-1423,38
85,-13,57,-6,37,737,-1093,36
85,-13,57,-6,37,737,-1022,37
86,-13,57,-6,37,736,-1020,36
86,-14,56,-8,37,734,-901,35
87,-15,55,-8,38,734,-532,36
86,-14,56,-7,39,734,-429,37
86,-14,56,-6,38,734,-311,37
85,-14,56,-6,38,734,-204,37
85,-13,58,-5,38,735,-162,38
84,-12,58,-4,37,734,-185,37
85,-13,57,-5,36,732,98,36
85,-13,56,-6,37,732,213,36
85,-13,56,-6,37,731,204,36
86,-14,55,-8,36,730,336,35
86,-15,54,-8,38,729,585,35
85,-14,56,-6,39,730,298,37
85,-14,56,-6,38,730,94,37
85,-14,56,-6,38,729,33,37
84,-13,57,-5,38,730,-98,38
83,-12,58,-4,37,729,-327,38
84,-13,56,-6,36,728,-135,36
84,-13,56,-6,37,727,15,36
84,-13,56,-7,36,726,44,36
85,-14,55,-7,36,725,134,35
86,-15,54,-8,37,724,311,35
85,-14,55,-7,38,725,4,37
85,-14,56,-6,37,725,-127,36
84,-14,56,-6,37,725,-87,37
84,-13,57,-5,38,725,-159,37
83,-12,58,-4,37,725,-404,37
84,-13,56,-6,36,723,-253,35
84,-14,55,-6,37,722,-241,36
84,-13,55,-6,37,722,-357,35
84,-14,55,-8,36,721,-369,35
85,-15,54,-8,37,720,-81,35
85,-14,55,-6,37,721,-167,36
84,-14,55,-6,37,720,-170,36
84,-14,56,-6,37,720,-74,37
83,-13,56,-5,38,720,-201,38
82,-12,57,-4,37,720,-532,37
83,-13,55,-5,36,718,-468,35
83,-13,55,-6,37,718,-387,35
84,-13,55,-6,37,718,-311,35
84,-14,54,-7,36,716,-200,34
85,-15,53,-8,37,715,34,35
84,-14,55,-6,38,716,-37,37
84,-14,55,-6,37,716,143,36
84,-13,55,-6,37,715,283,36
83,-13,56,-5,37,716,75,37
82,-11,57,-4,36,716,-294,37
83,-12,55,-5,35,714,-226,35
83,-13,55,-6,36,714,-229,35
83,-13,55,-6,36,713,-293,35
83,-13,54,-7,36,712,-240,34
84,-15,53,-8,36,710,-25,34
84,-14,54,-7,38,711,-188,36
83,-14,54,-6,37,711,-242,36
83,-13,55,-6,37,711,-211,36
82,-13,56,-5,37,711,-333,37
81,-12,57,-4,36,711,-554,37
82,-12,55,-6,34,709,-270,35
82,-13,55,-6,36,709,-111,35
82,-13,54,-6,36,708,-158,35
83,-14,53,-7,35,707,-77,34
83,-15,52,-8,36,706,166,34
83,-14,54,-6,38,707,20,36
82,-13,54,-6,37,707,-54,36
82,-13,54,-6,36,706,-53,36
82,-13,55,-5,37,707,-96,36
81,-11,56,-4,36,707,-258,37
81,-12,54,-6,35,705,-66,35
81,-12,54,-6,35,705,136,35
82,-13,54,-6,35,704,196,35
82,-13,53,-7,35,703,180,34
83,-15,52,-8,36,702,372,33
82,-14,54,-6,37,703,282,35
82,-13,54,-6,36,703,275,35
82,-13,54,-6,36,702,379,35
81,-12,54,-5,37,702,339,36
80,-11,56,-4,36,702,84,36
81,-12,54,-5,34,701,206,35
81,-12,54,-6,35,700,311,35
81,-13,54,-6,35,700,248,34
82,-13,53,-7,35,698,252,34
83,-15,52,-8,35,697,412,33
82,-14,53,-7,36,698,153,35
82,-13,53,-6,36,698,-83,35
81,-13,54,-5,36,698,-122,35
81,-12,55,-5,36,698,-175,36
80,-11,56,-3,36,698,-408,36
81,-11,56,-5,35,698,-277,35
84,-10,60,-4,38,702,-115,38
86,-9,62,-4,39,704,99,40
88,-9,63,-4,40,705,377,41
92,-10,65,-5,42,707,715,43
95,-11,71,-2,47,712,710,48
97,-11,74,-1,48,714,620,50
99,-11,76,-1,49,716,566,52
101,-11,80,0,52,719,491,55
101,-10,83,1,53,721,195,56
102,-8,83,0,51,720,242,55
102,-7,83,0,52,721,323,56
104,-8,84,0,53,721,301,57
105,-10,84,0,53,721,327,56
106,-12,83,-2,54,720,564,56
106,-11,84,0,55,721,534,58
105,-10,84,0,54,720,380,58
105,-10,84,0,54,720,365,58
105,-13,84,0,55,719,362,58
104,-13,84,1,54,719,192,58
104,-14,82,0,52,717,319,56
104,-14,82,0,53,716,471,56
103,-13,81,0,52,714,491,54
102,-12,79,-1,51,712,491,53
103,-13,78,-2,51,711,680,52
102,-13,79,-1,52,712,442,54
100,-13,76,-1,51,709,192,52
99,-14,75,-2,50,707,279,52
98,-14,75,-1,49,706,298,52
96,-13,74,0,48,705,31,51
95,-14,71,-1,45,701,113,48
93,-13,69,-2,45,699,352,46
92,-13,68,-3,44,697,381,45
91,-14,65,-4,42,694,421,43
91,-15,62,-6,42,691,550,41
89,-13,62,-5,42,691,357,42
87,-12,61,-4,41,689,101,41
84,-13,58,-5,39,686,-23,39
82,-11,57,-4,38,684,-152,38
79,-9,57,-3,37,683,-484,37
78,-11,53,-5,33,679,-528,33
78,-12,52,-5,34,678,-403,33
78,-13,52,-6,34,677,-503,33
78,-13,51,-7,34,676,-614,32
80,-14,50,-8,33,675,-424,32
79,-13,51,-6,35,676,-400,34
79,-13,51,-6,35,676,-518,34
79,-13,51,-6,35,676,-494,34
78,-12,52,-5,35,676,-498,34
77,-11,53,-3,35,676,-693,35
77,-12,52,-4,33,674,-627,33
78,-12,51,-5,34,674,-478,33
78,-12,51,-6,34,673,-490,33
78,-12,51,-6,33,673,-434,33
79,-14,49,-8,33,671,-184,31
79,-13,50,-6,35,672,-163,33
78,-13,51,-6,34,672,-263,34
78,-13,51,-5,34,671,-270,34
78,-12,52,-5,35,671,-398,34
76,-11,53,-4,35,672,-497,35
77,-11,51,-5,33,670,-357,33
77,-12,51,-6,33,669,-277,33
78,-13,51,-6,34,669,-318,33
78,-13,50,-6,33,668,-245,32
79,-14,49,-8,33,667,-156,31
78,-14,50,-7,35,667,-278,33
77,-13,51,-6,34,667,-420,33
77,-13,51,-6,34,667,-415,33
77,-12,51,-5,34,667,-461,34
76,-11,52,-4,34,668,-711,34
76,-11,51,-5,32,666,-688,33
77,-12,51,-6,33,665,-553,33
77,-12,51,-6,33,665,-542,33
77,-12,50,-6,33,664,-511,32
78,-13,48,-8,33,662,-289,31
78,-14,50,-7,35,663,-160,33
75,-13,53,-5,33,661,-314,31
70,-15,60,-3,29,653,-371,26
65,-18,68,-1,25,646,-423,21
58,-18,76,1,21,640,-687,17
54,-18,80,1,16,633,-810,12
55,-12,76,-1,18,637,-832,14
61,-4,64,-4,23,647,-877,20
72,7,44,-10,31,665,-891,33
90,31,9,-21,46,698,-797,53
113,56,-30,-31,67,739,-857,81
137,79,-71,-42,86,780,-1100,108
163,101,-114,-52,106,821,-1078,136
189,122,-156,-63,126,863,-1049,163
214,145,-197,-73,147,905,-1249,192
239,165,-240,-84,164,944,-1223,217
266,179,-279,-95,184,981,-987,243
291,185,-312,-102,204,1014,-906,266
313,183,-338,-107,219,1039,-809,285
330,184,-361,-113,231,1057,-586,299
341,188,-374,-116,241,1072,-518,311
347,184,-378,-115,244,1077,-578,316
349,173,-375,-113,245,1073,-500,315
346,164,-366,-109,243,1065,-558,311
336,156,-350,-104,237,1052,-740,303
325,146,-332,-100,225,1032,-685,288
312,132,-310,-94,215,1008,-489,273
294,113,-279,-86,202,977,-535,253
273,92,-242,-76,184,939,-519,229
250,69,-203,-67,164,897,-267,202
224,44,-158,-55,145,855,-279,175
197,17,-111,-41,124,810,-548,147
171,-4,-68,-30,103,767,-626,119
145,-22,-28,-20,83,727,-725,92
118,-39,14,-8,64,688,-1046,66
90,-56,46,-4,40,645,-1172,36
62,-79,53,-4,18,598,-986,5
35,-95,54,-5,-1,558,-984,-20
18,-86,54,-5,-13,542,-1032,-34
14,-70,52,-6,-15,544,-932,-36
24,-60,53,-6,-6,561,-922,-24
37,-45,53,-5,3,584,-1146,-8
51,-33,53,-5,14,607,-1145,6
63,-24,54,-4,23,625,-1111,19
70,-15,55,-2,30,640,-1229,29
71,-12,54,-3,30,642,-1291,29
72,-13,54,-4,30,641,-1141,29
72,-13,53,-4,30,640,-1155,29
73,-14,53,-5,30,640,-1095,28
73,-15,51,-7,30,638,-905,27
73,-15,52,-6,32,638,-867,29
73,-14,53,-4,32,639,-1075,29
72,-14,53,-5,31,638,-1066,29
72,-14,53,-4,31,638,-1098,30
71,-12,55,-2,31,639,-1296,31
71,-12,54,-3,29,638,-1334,29
71,-13,53,-4,29,637,-1042,29
71,-14,53,-4,30,636,-925,29
71,-13,53,-4,30,636,-878,28
72,-15,51,-6,29,634,-742,27
72,-15,52,-6,31,634,-693,28
72,-14,53,-4,31,635,-935,30
72,-14,53,-4,31,634,-1061,29
72,-13,53,-4,31,634,-1171,30
70,-12,55,-2,32,635,-1349,31
70,-12,54,-3,29,634,-1379,29
71,-13,52,-4,29,632,-1147,28
71,-13,53,-4,30,632,-1086,28
71,-13,52,-5,30,632,-998,28
72,-14,51,-6,29,630,-816,27
72,-15,51,-6,31,630,-698,29
71,-14,52,-4,31,631,-871,29
71,-14,52,-5,30,630,-851,29
71,-14,53,-4,31,630,-832,29
70,-12,54,-3,31,631,-1028,31
70,-12,53,-3,29,630,-1233,29
71,-13,53,-4,29,629,-983,28
71,-13,53,-4,30,629,-846,29
71,-13,52,-4,30,628,-729,28
71,-14,51,-6,29,626,-549,27
72,-15,51,-6,31,626,-412,28
71,-14,52,-5,31,627,-472,29
71,-14,52,-5,30,626,-426,29
70,-13,52,-4,30,626,-517,29
70,-12,55,-2,31,628,-786,31
71,-11,57,-2,31,630,-893,32
72,-11,57,-3,32,629,-504,31
74,-11,57,-3,32,630,-356,32
75,-10,60,-3,33,632,-329,33
77,-11,60,-4,34,631,-243,33
79,-13,60,-4,37,632,-149,35
79,-13,62,-2,37,634,-290,36
79,-13,62,-2,37,633,-212,36
83,-13,68,-1,40,636,-366,40
84,-12,68,-2,39,636,-25,39
85,-10,69,-2,41,637,120,41
85,-10,71,0,42,639,-55,43
86,-12,72,0,43,639,34,44
86,-11,73,0,43,640,58,44
86,-10,76,1,44,642,-51,47
88,-7,80,2,45,645,-135,48
92,-6,83,2,46,648,102,50
95,-5,87,3,49,652,274,53
96,-4,89,3,50,654,417,55
99,-4,90,2,50,655,542,55
102,-3,94,3,54,659,682,58
104,0,100,6,57,664,644,63
107,1,105,7,59,667,692,65
109,3,109,9,61,672,645,68
111,4,114,11,64,676,518,72
113,4,117,11,65,678,369,74
117,5,120,11,66,681,583,75
120,7,124,12,69,685,594,78
123,8,129,13,71,689,628,81
127,10,132,13,72,692,795,83
130,8,135,13,76,695,1039,86
132,9,139,15,78,699,914,89
133,10,141,15,78,700,856,90
134,11,143,16,79,702,767,92
135,12,146,18,81,704,544,94
135,12,147,18,80,704,327,94
137,10,146,17,80,704,552,94
137,10,147,17,82,704,630,94
140,10,149,17,83,706,636,96
140,10,149,17,83,705,733,95
141,9,149,16,84,705,932,96
140,10,150,17,84,705,778,97
138,9,147,17,82,702,732,95
137,8,145,16,81,700,749,94
136,6,145,17,82,699,713,94
133,7,143,17,79,696,612,92
132,5,139,15,77,692,862,89
131,4,137,14,77,690,887,88
130,2,134,13,76,687,878,86
129,1,130,11,74,683,1036,83
128,-2,127,10,74,680,1360,82
125,-2,125,11,73,677,1296,81
122,-1,122,10,70,674,1266,78
120,-3,118,9,68,670,1241,76
118,-5,117,10,68,667,1151,76
115,-7,112,9,64,663,883,72
113,-10,107,7,61,657,1022,68
112,-14,103,5,61,654,1121,67
110,-16,99,4,59,649,1065,64
107,-18,94,2,56,644,1025,60
105,-16,91,1,56,641,1327,58
102,-14,90,2,55,640,1274,58
99,-14,88,2,53,637,1146,56
98,-15,86,2,52,634,1137,54
96,-15,85,2,51,633,986,54
93,-13,84,2,49,631,778,52
91,-13,79,1,46,627,1028,48
90,-15,77,0,46,624,1174,48
89,-14,75,0,44,623,1213,46
88,-15,72,-1,42,619,1302,43
87,-17,69,-3,42,616,1521,42
85,-14,70,0,43,617,1338,43
83,-13,68,-1,41,615,1264,42
82,-14,66,-1,40,613,1189,40
79,-13,65,0,40,611,861,40
77,-12,65,0,38,610,391,39
78,-15,62,-2,36,606,169,36
77,-16,60,-2,35,604,-271,35
76,-14,59,-3,34,603,-518,34
74,-13,56,-4,32,600,-568,32
73,-15,52,-6,32,597,-436,29
70,-14,52,-4,32,596,-616,30
68,-12,51,-4,30,594,-690,29
68,-12,51,-4,30,593,-756,29
66,-11,52,-3,30,594,-908,29
65,-10,52,-2,29,593,-1090,29
65,-12,48,-4,26,589,-801,25
64,-13,47,-4,27,588,-701,25
64,-13,46,-5,26,587,-749,24
65,-14,45,-6,26,586,-692,24
65,-15,45,-7,26,585,-510,24
65,-14,46,-5,28,586,-728,25
64,-13,46,-5,27,586,-864,25
64,-13,47,-5,27,585,-869,25
64,-13,47,-4,27,586,-959,26
63,-12,48,-3,26,586,-1178,26
63,-12,46,-4,25,585,-1044,24
64,-12,46,-4,26,584,-991,25
64,-13,46,-5,26,583,-1050,25
64,-13,46,-6,26,583,-1061,24
65,-15,44,-7,27,582,-935,23
65,-14,46,-5,28,582,-1190,26
64,-13,46,-5,27,582,-1256,25
64,-13,46,-5,27,582,-1242,25
63,-12,47,-4,28,582,-1330,26
62,-11,48,-2,26,582,-1555,26
63,-12,46,-4,25,580,-1367,24
63,-13,46,-4,26,580,-1215,24
63,-13,46,-5,26,580,-1165,24
64,-13,45,-6,25,579,-978,23
65,-14,44,-7,26,577,-647,23
64,-14,45,-5,27,578,-807,25
64,-13,46,-5,26,578,-932,25
64,-13,45,-4,27,578,-960,25
63,-12,46,-3,27,579,-1015,26
62,-11,48,-2,26,579,-1232,26
63,-12,46,-4,25,577,-1101,24
63,-12,46,-4,26,577,-1105,24
63,-13,46,-5,25,576,-1236,24
64,-13,45,-6,25,575,-1192,23
64,-14,44,-7,26,574,-955,23
64,-13,45,-5,27,575,-1108,25
64,-13,45,-5,26,575,-1233,24
63,-13,45,-5,26,575,-1237,25
63,-12,46,-4,27,575,-1261,25
62,-11,47,-3,26,575,-1461,26
62,-12,46,-4,25,574,-1272,24
63,-13,46,-4,26,574,-1118,24
63,-13,45,-5,26,573,-1138,24
63,-13,44,-5,25,572,-1146,23
64,-14,43,-7,25,570,-1051,22
64,-13,45,-5,27,571,-1480,25
63,-13,45,-5,26,571,-1733,24
63,-13,45,-5,26,571,-1765,25
63,-12,46,-4,27,571,-1911,26
61,-11,47,-3,26,572,-2212,26
62,-12,45,-5,25,570,-2113,24
62,-12,45,-5,25,569,-1962,24
62,-13,45,-4,26,569,-1936,24
63,-13,44,-5,25,568,-1876,23
64,-14,43,-6,25,566,-1692,22
63,-13,44,-5,27,568,-1831,24
62,-13,45,-5,26,567,-1975,24
62,-13,45,-5,26,567,-1989,24
62,-12,46,-4,26,568,-2026,25
61,-11,47,-2,26,569,-2231,26
61,-12,45,-4,25,567,-2151,24
62,-12,45,-4,25,566,-2119,24
62,-12,45,-4,25,566,-2209,24
62,-13,44,-5,25,565,-2219,23
63,-14,43,-7,25,563,-2074,22
63,-14,44,-5,27,564,-2229,24
62,-13,44,-4,26,564,-2480,24
62,-13,44,-4,25,564,-2586,24
62,-12,45,-4,26,564,-2611,25
60,-11,47,-2,26,565,-2782,26
61,-12,45,-4,24,563,-2712,24
61,-12,44,-4,25,562,-2480,23
61,-12,44,-5,26,562,-2395,24
62,-13,44,-5,25,561,-2304,23
63,-14,42,-7,25,559,-2021,22
62,-13,43,-5,27,561,-2057,24
62,-13,44,-5,26,561,-2255,24
61,-13,44,-5,26,560,-2451,24
61,-12,45,-4,26,561,-2588,25
60,-10,46,-2,26,561,-2875,25
60,-11,44,-4,24,559,-2821,23
61,-12,44,-4,25,559,-2659,23
61,-12,44,-5,25,558,-2634,23
61,-13,44,-5,24,558,-2592,23
62,-14,42,-7,25,556,-2393,22
62,-13,43,-5,26,557,-2454,24
62,-13,44,-4,26,557,-2521,24
61,-12,44,-4,26,556,-2413,24
61,-12,44,-4,26,557,-2399,24
60,-11,46,-2,26,558,-2634,25
60,-11,44,-4,24,556,-2555,23
60,-12,44,-4,25,555,-2422,23
61,-12,44,-4,25,555,-2485,23
61,-12,43,-5,25,554,-2485,22
62,-14,42,-6,24,553,-2323,22
62,-14,43,-5,26,554,-2482,24
61,-13,44,-5,25,553,-2683,24
61,-12,44,-5,25,553,-2651,24
60,-12,44,-4,26,553,-2601,25
59,-11,46,-2,26,554,-2722,26
59,-11,44,-3,24,552,-2632,23
60,-12,44,-4,25,552,-2471,23
60,-12,44,-4,25,551,-2502,23
61,-12,43,-5,24,551,-2514,22
61,-14,42,-7,24,549,-2327,22
62,-14,43,-5,26,550,-2368,24
61,-13,43,-5,25,550,-2482,23
61,-12,43,-4,25,550,-2398,24
62,-11,46,-3,27,553,-2407,26
63,-8,52,0,29,558,-2631,29
65,-7,52,-1,28,558,-2626,29
67,-8,54,-2,30,560,-2543,30
70,-8,58,-1,32,562,-2535,33
74,-10,61,-1,35,566,-2382,36
77,-11,63,-2,37,567,-2004,37
79,-11,66,0,40,570,-2025,40
81,-11,69,0,41,573,-2310,43
82,-11,71,0,42,574,-2365,44
82,-8,73,1,43,576,-2430,45
81,-6,75,3,43,577,-2660,47
83,-7,75,2,42,576,-2639,46
84,-9,75,1,43,576,-2426,46
84,-9,75,1,43,576,-2256,46
85,-10,74,1,43,575,-2158,45
86,-10,72,0,42,574,-2078,44
86,-11,73,0,44,574,-2155,46
85,-14,72,0,44,573,-2313,45
85,-14,72,0,44,572,-2287,45
84,-14,72,0,44,572,-2324,46
82,-12,74,2,44,573,-2580,47
81,-11,71,1,40,570,-2579,43
80,-11,70,0,40,568,-2419,42
80,-11,70,0,41,568,-2380,42
80,-11,69,0,40,566,-2212,42
80,-14,64,-2,38,562,-2008,39
79,-14,65,-1,40,562,-2060,40
77,-13,64,0,39,561,-2308,40
76,-15,62,-1,37,559,-2427,38
74,-14,61,0,37,557,-2483,37
72,-11,61,0,36,557,-2591,37
70,-11,58,-1,32,553,-2534,34
69,-13,55,-2,32,550,-2344,31
68,-13,53,-2,31,549,-2292,31
67,-12,52,-3,30,547,-2179,29
66,-13,49,-5,29,544,-1913,27
64,-13,47,-4,28,541,-1881,26
61,-11,46,-4,27,540,-2102,26
60,-11,44,-4,26,538,-2127,24
58,-12,42,-4,25,536,-2077,23
58,-11,44,-2,25,536,-2196,24
57,-11,42,-3,23,535,-2201,22
57,-11,42,-4,23,534,-2081,21
57,-11,42,-4,24,534,-2119,22
58,-12,41,-5,23,533,-2052,21
59,-13,40,-7,23,531,-1841,20
59,-13,41,-6,25,532,-1804,22
58,-12,41,-5,25,533,-1990,22
58,-12,41,-5,24,532,-1954,22
58,-12,42,-4,24,532,-1978,23
57,-11,43,-3,25,533,-2285,24
57,-11,43,-3,23,532,-2393,22
57,-11,42,-4,23,531,-2250,21
58,-12,42,-4,23,530,-2241,22
58,-12,41,-4,23,530,-2198,22
59,-13,39,-6,23,528,-2029,20
59,-13,40,-6,25,529,-1971,22
58,-12,41,-4,24,529,-2160,23
57,-12,41,-4,24,529,-2142,23
57,-12,41,-4,24,529,-2114,23
56,-10,43,-2,25,530,-2313,24
56,-10,42,-3,22,528,-2420,22
57,-11,42,-4,23,528,-2234,22
57,-11,41,-5,23,527,-2253,22
57,-12,41,-5,23,526,-2243,21
58,-13,39,-6,22,525,-2070,20
59,-13,40,-5,25,525,-2011,22
57,-12,41,-4,24,526,-2215,22
57,-12,41,-5,24,525,-2210,22
57,-11,41,-4,24,525,-2153,22
56,-10,42,-2,24,526,-2272,23
55,-10,42,-3,22,525,-2352,22
56,-11,41,-4,23,524,-2209,21
57,-11,41,-4,23,524,-2213,21
57,-12,41,-5,22,523,-2191,21
55,-13,42,-6,20,518,-2064,17
50,-16,51,-3,18,511,-2005,13
45,-19,59,0,14,504,-2209,9
39,-20,66,0,10,496,-2218,4
35,-18,70,1,8,493,-2219,2
36,-9,66,1,10,500,-2386,6
42,-1,53,-2,13,511,-2442,12
55,12,30,-9,23,532,-2260,25
74,38,-6,-19,39,568,-2240,48
97,62,-47,-31,58,607,-2188,74
123,83,-91,-44,77,647,-1958,100
150,104,-133,-54,100,689,-1788,129
174,127,-174,-64,120,731,-1932,157
200,148,-216,-75,140,772,-1884,185
226,168,-257,-85,160,813,-1761,212
250,183,-294,-93,180,851,-1877,239
275,186,-326,-100,196,881,-1920,260
297,184,-351,-106,212,904,-1671,277
312,187,-371,-110,224,924,-1661,292
322,190,-385,-114,230,936,-1658,301
328,182,-389,-115,233,937,-1541,303
330,170,-385,-112,236,933,-1439,303
325,162,-374,-108,232,925,-1620,299
316,154,-359,-104,224,909,-1605,288
304,143,-339,-98,215,890,-1576,276
289,130,-312,-90,204,866,-1748,261
270,111,-281,-82,188,833,-1892,239
249,89,-244,-73,170,795,-1766,214
224,67,-202,-62,151,753,-1840,187
198,41,-158,-50,130,709,-1883,159
173,12,-114,-39,109,663,-1784,128
148,-9,-71,-28,90,621,-1688,102
121,-25,-29,-16,70,582,-1916,76
94,-44,10,-7,49,541,-1934,48
66,-60,39,-3,27,499,-1956,20
37,-83,45,-2,5,454,-2151,-8
11,-94,46,-2,-15,417,-2311,-34
-3,-81,45,-3,-25,405,-2126,-46
-4,-66,45,-3,-24,411,-2112,-43
6,-56,44,-3,-16,429,-2061,-32
21,-43,43,-5,-5,451,-1804,-17
35,-32,43,-5,6,473,-1700,-2
45,-22,44,-3,15,492,-1945,10
52,-15,44,-3,20,503,-1999,17
53,-13,44,-3,21,505,-1964,19
52,-12,45,-2,22,506,-2119,20
52,-11,45,-1,20,506,-2286,19
52,-12,44,-3,19,504,-2093,18
52,-13,44,-2,20,504,-2022,18
53,-13,44,-3,20,503,-2029,18
53,-14,42,-4,19,502,-1935,17
54,-14,42,-5,21,502,-1806,18
53,-13,43,-3,22,503,-2051,19
53,-13,43,-3,21,502,-2079,19
53,-13,44,-3,21,502,-2058,19
52,-12,45,-1,22,503,-2218,20
51,-12,45,-1,20,502,-2373,19
52,-12,44,-3,20,501,-2140,18
52,-12,44,-3,20,500,-2046,18
52,-12,44,-3,20,500,-2007,18
53,-13,42,-4,20,499,-1870,17
53,-15,42,-5,21,499,-1692,18
52,-14,43,-3,21,499,-1840,19
52,-13,43,-3,21,499,-1860,18
52,-13,43,-3,21,499,-1893,18
52,-12,45,-1,22,500,-2052,20
51,-11,45,-1,20,499,-2240,19
52,-12,44,-3,19,498,-2085,18
52,-12,44,-3,20,498,-2084,18
52,-13,43,-3,20,497,-2140,18
52,-14,42,-4,19,496,-2072,16
53,-14,41,-5,21,496,-1886,17
52,-13,43,-3,22,497,-1969,19
52,-13,43,-3,21,496,-1878,19
52,-13,43,-3,20,496,-1751,19
51,-12,44,-1,21,497,-1863,19
50,-11,45,-1,20,496,-2146,19
51,-12,43,-3,19,494,-2020,18
52,-12,43,-3,20,494,-2002,18
52,-13,43,-3,20,493,-2007,17
52,-13,42,-4,19,493,-1907,16
53,-14,41,-5,20,492,-1715,17
52,-13,42,-3,21,493,-1787,19
52,-13,44,-3,21,494,-1795,19
54,-11,46,-2,22,496,-1880,21
53,-10,48,-1,23,497,-2053,22
53,-8,50,0,22,498,-2257,23
56,-9,51,-1,23,500,-2047,23
57,-9,52,-1,25,500,-1985,24
59,-11,53,-1,26,501,-1963,25
60,-12,52,-2,25,500,-1871,24
60,-13,51,-2,27,500,-1768,25
61,-12,54,-1,28,502,-1971,27
62,-11,57,0,29,504,-1943,28
62,-10,57,0,29,504,-1869,29
62,-10,59,1,30,505,-1957,30
62,-10,60,2,29,506,-2184,31
64,-11,60,0,29,505,-2018,30
64,-10,61,0,30,506,-1900,31
65,-8,62,0,30,507,-1863,31
67,-10,62,0,30,507,-1772,31
69,-12,62,0,32,507,-1633,32
69,-11,63,0,34,508,-1939,34
70,-10,66,1,34,510,-2047,35
72,-8,70,2,37,514,-2021,38
74,-5,76,5,39,519,-2048,42
76,-3,80,6,40,523,-2084,45
78,-3,81,5,40,524,-1793,44
80,-2,84,6,42,526,-1714,46
83,0,88,7,44,530,-1779,49
86,0,91,7,46,533,-1692,51
90,1,94,7,49,536,-1557,54
92,3,100,9,52,541,-1770,58
95,3,104,10,54,544,-1801,60
97,4,108,11,56,548,-1768,63
99,6,113,14,59,552,-1816,67
101,9,118,15,60,557,-1949,70
104,10,121,15,61,560,-1748,71
108,11,125,16,64,563,-1710,74
111,10,128,16,66,566,-1789,76
114,10,130,15,67,568,-1749,78
116,10,130,15,69,568,-1621,79
116,11,134,17,71,572,-1815,82
117,11,136,18,71,573,-1897,83
119,10,137,18,72,574,-1904,84
119,10,138,19,73,575,-1957,85
118,12,140,20,73,576,-2114,86
121,12,141,20,73,577,-1886,86
122,12,142,19,74,577,-1694,87
121,12,141,19,73,576,-1619,86
121,11,139,18,73,574,-1584,85
121,8,135,16,72,571,-1360,83
119,8,136,17,73,571,-1501,84
118,6,134,16,71,569,-1654,82
116,6,132,16,70,566,-1719,81
115,5,131,17,70,565,-1801,81
112,6,130,18,68,563,-2036,79
111,4,125,15,65,558,-1986,76
110,2,123,14,65,556,-1971,74
109,0,119,13,64,552,-1925,72
106,-1,115,11,61,548,-1754,69
104,-1,111,10,60,544,-1539,66
102,-3,109,10,60,542,-1711,66
100,-6,106,9,58,538,-1799,64
98,-8,101,9,56,534,-1745,61
95,-10,98,8,54,530,-1796,60
93,-13,96,9,52,527,-2038,58
90,-15,90,6,48,521,-1922,53
88,-15,87,5,47,517,-1857,50
85,-13,84,5,45,515,-1895,49
83,-13,80,3,43,511,-1818,46
83,-15,77,1,42,508,-1505,44
80,-15,76,2,43,506,-1530,44
78,-16,74,2,41,504,-1609,42
76,-14,73,2,40,503,-1540,42
74,-13,71,2,38,501,-1634,40
71,-13,70,3,37,499,-2007,39
70,-12,67,1,34,496,-1831,36
69,-14,64,0,34,493,-1691,35
67,-14,62,0,32,490,-1699,33
66,-13,60,0,31,489,-1693,31
66,-14,58,-2,30,486,-1514,29
64,-14,57,-1,31,485,-1644,30
62,-14,55,-1,29,483,-1809,29
61,-13,55,0,28,482,-1828,28
60,-15,54,0,28,481,-1778,28
57,-13,53,0,27,480,-1890,27
56,-13,51,0,24,477,-1806,24
55,-12,49,-1,24,475,-1728,23
53,-13,45,-2,22,472,-1667,21
52,-13,43,-2,21,470,-1598,19
52,-13,40,-4,20,467,-1473,17
50,-11,41,-3,21,468,-1577,18
50,-11,42,-3,20,467,-1696,18
48,-11,41,-3,19,466,-1751,18
47,-12,39,-3,19,464,-1801,17
45,-11,40,-1,18,464,-1950,17
45,-11,38,-2,16,462,-1824,15
46,-12,38,-3,17,462,-1769,15
46,-12,38,-3,17,461,-1874,15
47,-12,37,-4,17,461,-1792,14
48,-14,36,-5,17,459,-1582,13
47,-14,37,-4,19,460,-1731,15
47,-13,38,-4,18,460,-1903,15
47,-13,38,-3,17,460,-1895,15
46,-12,38,-2,18,460,-1932,16
45,-11,40,-1,18,461,-2171,17
46,-12,39,-2,16,459,-2110,15
46,-12,38,-3,17,459,-1989,15
46,-12,38,-3,17,459,-2013,15
47,-13,37,-4,17,458,-2009,14
47,-14,36,-5,17,456,-1798,13
47,-13,37,-4,19,458,-1860,15
46,-12,37,-3,18,457,-1959,15
46,-13,37,-3,18,457,-1903,15
46,-12,38,-3,18,457,-1936,16
45,-11,39,-1,18,458,-2124,17
45,-11,38,-3,16,456,-1972,15
45,-12,37,-3,17,456,-1838,14
46,-12,37,-3,17,456,-1806,14
46,-12,37,-4,17,455,-1690,14
47,-14,35,-5,17,454,-1447,13
47,-13,36,-4,19,455,-1516,15
46,-13,37,-4,18,454,-1719,15
46,-13,37,-3,17,454,-1802,15
46,-12,38,-3,18,454,-1861,16
44,-11,39,-1,18,456,-2079,16
44,-11,38,-2,16,453,-2015,15
45,-12,37,-3,17,453,-1985,15
46,-12,37,-3,17,453,-2046,14
45,-12,37,-4,17,452,-1962,14
47,-14,35,-6,17,451,-1812,13
46,-13,36,-4,18,452,-1848,15
45,-13,37,-3,17,452,-2024,15
46,-13,37,-3,17,451,-2033,15
46,-12,38,-3,18,452,-2037,16
44,-10,39,-2,18,453,-2219,16
44,-11,38,-3,15,451,-2159,14
45,-12,37,-3,17,450,-2010,14
45,-12,37,-3,17,450,-2004,14
46,-12,36,-4,17,449,-1969,14
47,-13,35,-6,16,448,-1821,13
46,-13,36,-4,18,449,-1934,15
45,-12,37,-4,18,449,-2157,15
45,-12,37,-3,17,449,-2150,15
45,-12,37,-3,17,449,-2189,15
44,-10,39,-1,18,449,-2396,16
44,-11,37,-2,16,448,-2318,14
45,-12,37,-3,17,447,-2195,14
45,-12,37,-3,17,447,-2292,14
45,-12,36,-3,16,446,-2336,14
46,-13,35,-5,17,445,-2128,13
46,-13,35,-4,18,446,-2102,14
46,-12,36,-3,18,446,-2191,15
45,-12,36,-3,17,446,-2160,15
45,-12,37,-3,17,446,-2233,15
44,-10,39,-1,18,447,-2471,16
44,-11,37,-2,15,445,-2449,14
44,-11,36,-3,16,445,-2289,14
45,-12,37,-3,17,444,-2266,14
45,-12,36,-4,16,444,-2177,14
46,-13,34,-5,16,442,-1946,12
46,-13,35,-4,18,443,-1951,15
44,-11,36,-3,16,442,-1990,14
44,-11,36,-3,16,441,-1852,14
45,-12,36,-4,16,441,-1877,13
46,-13,34,-5,15,439,-1781,12
46,-13,35,-4,18,440,-1687,14
45,-12,36,-3,17,440,-1786,15
45,-12,36,-3,17,440,-1807,15
45,-12,37,-3,17,440,-1871,15
43,-11,38,-1,18,441,-2116,16
43,-11,37,-2,16,440,-2063,14
44,-11,36,-3,16,439,-1826,14
44,-11,36,-3,16,439,-1881,14
44,-12,36,-4,16,438,-1825,14
45,-13,34,-5,16,437,-1639,13
45,-13,35,-4,17,437,-1606,14
45,-12,36,-3,17,438,-1768,15
44,-12,36,-3,17,438,-1736,15
44,-12,36,-2,17,438,-1753,15
43,-10,38,-1,18,439,-1899,16
43,-11,37,-2,15,437,-1916,14
43,-11,36,-3,16,436,-1777,14
44,-12,36,-3,17,436,-1826,14
44,-12,36,-3,16,436,-1796,13
45,-13,34,-5,15,434,-1647,12
45,-13,35,-4,18,434,-1664,14
44,-12,35,-4,17,435,-1948,14
44,-12,35,-3,16,434,-1932,14
44,-12,36,-3,16,434,-1838,15
43,-10,37,-1,17,436,-1950,16
42,-10,37,-2,15,435,-1998,14
43,-11,36,-3,16,433,-1914,14
43,-11,36,-3,16,433,-1956,14
43,-12,35,-3,16,432,-1891,13
45,-13,34,-5,16,432,-1714,12
45,-13,34,-4,18,432,-1689,14
44,-12,35,-3,17,432,-1890,14
44,-12,35,-3,17,432,-1863,14
44,-12,36,-3,16,432,-1845,15
43,-11,37,-1,17,433,-1999,16
42,-10,37,-2,15,432,-2117,14
43,-11,35,-3,15,431,-1997,13
43,-11,35,-3,16,431,-2001,13
44,-12,35,-3,15,430,-1989,13
45,-13,33,-5,15,428,-1825,12
44,-13,34,-5,17,429,-1738,14
44,-12,35,-3,17,429,-1913,14
43,-12,35,-3,17,429,-1853,14
43,-12,36,-3,17,429,-1755,14
42,-11,37,-1,18,430,-1916,16
42,-10,36,-2,15,429,-2093,14
42,-11,35,-3,15,428,-1969,13
43,-11,35,-3,15,428,-1906,13
43,-11,35,-3,15,427,-1893,13
44,-12,33,-5,15,426,-1802,12
44,-13,34,-5,17,426,-1724,13
43,-12,35,-3,17,427,-1924,14
43,-12,35,-3,16,426,-1953,14
43,-12,35,-3,17,426,-1997,14
42,-10,37,-1,18,428,-2127,16
42,-10,36,-1,15,426,-2158,14
42,-11,35,-3,15,425,-2003,13
43,-11,35,-3,16,425,-2038,13
42,-11,35,-3,15,424,-2018,13
43,-12,33,-5,15,423,-1835,12
44,-13,33,-4,17,423,-1757,14
43,-12,35,-3,17,424,-2030,14
43,-12,35,-3,16,424,-2104,14
42,-11,35,-3,17,424,-2072,15
41,-10,36,-1,17,425,-2163,16
41,-10,36,-1,15,424,-2195,14
42,-11,35,-2,15,423,-1912,14
42,-11,34,-3,16,422,-1971,13
43,-12,34,-3,15,422,-2056,13
44,-12,33,-5,15,420,-1844,12
44,-13,33,-4,17,421,-1627,13
43,-12,34,-3,17,422,-1828,14
42,-11,34,-3,16,421,-1776,14
42,-12,34,-3,16,421,-1808,14
42,-10,36,-1,17,422,-2045,16
41,-10,35,-2,15,421,-2214,14
42,-11,35,-3,15,420,-1954,13
42,-11,34,-3,16,420,-1964,13
42,-11,34,-3,15,419,-1896,13
43,-12,33,-5,15,418,-1752,12
43,-13,33,-4,17,418,-1702,13
43,-12,34,-3,17,419,-1912,14
43,-12,34,-3,16,418,-1943,14
42,-11,34,-3,16,419,-1886,14
41,-10,36,-2,17,420,-1993,15
40,-10,36,-2,15,418,-2129,14
42,-11,35,-2,15,417,-1955,13
42,-11,34,-3,16,417,-2020,14
42,-11,34,-3,15,417,-2065,13
43,-12,33,-4,15,415,-1956,12
43,-13,33,-4,16,416,-1799,13
42,-12,34,-3,17,417,-1984,14
43,-12,34,-3,16,416,-1970,14
42,-12,34,-3,16,416,-1872,14
41,-10,36,-2,17,416,-1971,15
40,-9,36,-1,15,416,-2180,14
41,-10,34,-3,15,415,-2047,13
42,-11,34,-3,15,415,-2118,13
42,-11,34,-3,15,414,-2196,13
43,-12,33,-5,15,413,-2100,12
43,-12,32,-5,16,413,-1978,13
42,-12,34,-3,16,413,-2238,14
42,-11,34,-3,16,413,-2221,14
42,-11,34,-3,16,413,-2154,14
41,-10,36,-1,17,414,-2274,15
40,-9,35,-1,15,413,-2373,14
41,-10,34,-3,14,412,-2040,13
41,-11,34,-3,15,412,-1916,13
41,-11,34,-3,15,411,-1905,13
41,-12,32,-5,14,410,-1804,12
43,-13,32,-5,16,410,-1620,12
42,-12,33,-3,16,411,-1783,14
41,-11,33,-3,16,410,-1787,14
41,-11,34,-3,16,410,-1752,14
40,-10,35,-1,17,411,-1844,15
40,-10,35,-1,15,410,-2015,14
40,-10,34,-3,14,409,-1837,13
41,-11,34,-3,15,409,-1849,13
41,-11,33,-3,15,409,-1933,13
42,-12,32,-5,14,408,-1894,12
43,-13,32,-5,15,407,-1761,12
42,-11,33,-3,16,408,-1949,14
42,-11,34,-3,16,409,-1995,14
44,-9,38,-2,17,412,-2033,16
46,-7,43,0,20,416,-2176,20
46,-5,45,0,20,418,-2367,21
49,-6,46,0,21,419,-2164,22
52,-8,49,0,24,423,-2117,25
56,-9,53,0,27,426,-2094,27
59,-9,54,0,28,427,-2032,28
62,-10,57,0,31,430,-1901,30
63,-10,60,1,33,433,-2089,34
63,-8,61,2,32,434,-2123,34
63,-6,63,2,33,435,-2099,35
63,-6,65,4,34,436,-2151,37
64,-6,67,4,33,437,-2307,37
65,-7,65,3,33,436,-2066,36
65,-8,65,3,34,436,-1944,36
66,-8,64,2,34,435,-1910,36
66,-9,64,1,33,434,-1803,35
67,-12,62,1,34,432,-1598,35
66,-13,62,1,35,432,-1776,36
65,-13,62,1,34,432,-1851,35
66,-13,62,2,34,432,-1861,36
64,-11,62,3,33,432,-2030,36
61,-8,62,4,31,430,-2359,34
61,-9,60,2,30,429,-2291,33
62,-9,60,1,31,428,-2480,33
61,-11,58,1,30,426,-2587,32
60,-12,54,0,29,423,-2358,29
60,-13,53,0,30,422,-2013,28
59,-13,53,0,30,421,-2088,29
57,-14,51,0,27,419,-2174,27
55,-12,50,0,26,417,-2366,26
53,-10,50,0,26,417,-2914,26
51,-10,48,0,24,414,-3337,24
50,-11,45,-1,21,411,-3158,22
49,-10,43,-1,21,410,-3007,21
48,-10,42,-1,20,408,-2950,20
46,-11,38,-3,18,404,-2857,17
44,-11,34,-4,17,401,-2697,14
42,-10,35,-2,18,401,-2853,16
40,-10,33,-3,16,399,-2830,14
39,-11,32,-3,15,397,-2741,13
39,-10,33,-2,16,398,-2790,14
38,-9,34,-1,15,398,-2971,14
39,-10,32,-2,13,396,-2827,12
39,-10,32,-3,15,396,-2852,12
39,-10,32,-3,14,396,-3118,12
40,-11,31,-4,14,395,-3309,11
41,-12,30,-5,14,394,-3252,11
40,-12,32,-3,16,395,-3484,13
40,-11,32,-3,15,395,-3564,13
40,-11,32,-3,15,394,-3491,13
39,-10,32,-2,15,395,-3464,14
38,-9,34,-1,14,396,-3403,14
39,-10,32,-2,13,394,-3042,12
39,-10,32,-3,14,394,-2921,12
39,-11,31,-3,14,393,-2941,12
39,-11,31,-4,14,392,-2915,12
40,-12,29,-5,14,391,-2907,11
39,-11,31,-3,16,393,-3185,13
39,-11,32,-3,15,392,-3250,13
39,-11,31,-3,15,392,-3079,13
39,-10,32,-2,15,393,-2989,14
38,-9,34,-1,14,393,-3164,14
38,-10,32,-2,13,392,-2979,12
38,-10,32,-2,14,391,-2880,12
38,-10,32,-3,14,391,-2902,12
39,-11,30,-4,14,390,-2873,11
40,-12,29,-5,14,389,-2694,11
40,-11,31,-3,16,390,-2843,12
39,-11,31,-3,15,390,-2947,12
39,-11,31,-3,15,390,-2960,12
39,-10,32,-2,15,390,-3109,13
38,-9,34,-1,14,391,-3364,13
38,-10,32,-3,13,389,-3011,12
38,-10,32,-3,14,389,-2774,12
38,-10,32,-3,13,387,-2807,11
34,-12,37,-2,9,380,-2831,6
30,-17,44,-2,6,372,-2593,1
24,-18,52,0,4,366,-2643,-1
18,-19,59,2,0,359,-2714,-6
17,-14,59,2,0,360,-2689,-6
20,-5,50,0,2,369,-2728,0
28,4,37,-2,9,385,-2976,9
43,25,6,-12,20,412,-2927,24
65,50,-33,-23,38,450,-2867,49
89,73,-74,-35,58,491,-2930,76
116,94,-118,-47,78,531,-2903,103
143,114,-161,-59,98,572,-2649,130
168,137,-202,-69,120,615,-2708,159
193,158,-244,-79,139,656,-2766,187
218,176,-284,-88,159,695,-2715,213
244,186,-319,-96,179,731,-2761,238
267,187,-346,-100,196,759,-3028,260
285,187,-370,-106,207,780,-2964,275
298,190,-387,-110,218,797,-2920,287
307,190,-397,-112,223,805,-2986,293
311,179,-397,-112,225,804,-2913,294
311,167,-392,-110,224,796,-2582,290
304,159,-378,-105,221,785,-2586,285
294,151,-360,-101,211,768,-2656,274
281,139,-338,-95,201,746,-2643,260
264,123,-311,-87,188,719,-2639,243
243,103,-274,-75,172,685,-2859,221
220,82,-236,-67,153,645,-2787,193
195,58,-193,-56,133,602,-2859,166
169,30,-148,-44,112,557,-2986,137
143,4,-103,-32,91,513,-2921,108
118,-15,-64,-23,72,471,-2779,80
92,-33,-22,-12,53,432,-3051,55
65,-50,16,-4,31,391,-3314,27
36,-69,33,-2,9,347,-3362,-1
8,-90,35,-1,-11,303,-3396,-30
-14,-89,37,0,-28,278,-3470,-48
-24,-72,36,-1,-36,274,-3253,-55
-19,-60,35,-2,-31,285,-3111,-49
-5,-48,35,-2,-20,307,-3045,-34
9,-35,34,-3,-9,330,-3000,-19
22,-28,32,-4,0,349,-2978,-7
32,-18,34,-3,9,366,-3136,5
35,-13,34,-2,12,374,-3076,10
35,-12,34,-2,12,374,-2792,10
35,-12,35,-1,12,374,-2882,10
34,-11,36,0,12,375,-3250,11
34,-11,35,-1,10,373,-3243,9
35,-12,35,-2,11,373,-3170,9
35,-12,34,-2,12,373,-3188,9
35,-12,34,-2,11,372,-3233,8
36,-13,32,-4,11,371,-3037,7
36,-13,34,-3,13,372,-3067,9
35,-12,34,-2,12,372,-3096,9
35,-12,34,-2,12,371,-2947,9
35,-12,34,-1,12,372,-2820,9
34,-10,36,0,13,373,-2970,11
34,-11,35,-1,11,371,-2890,9
34,-11,34,-2,11,370,-2747,9
34,-12,34,-2,11,370,-2790,9
35,-12,34,-2,11,370,-2777,9
36,-13,32,-4,11,368,-2632,7
36,-13,33,-3,13,369,-2803,9
36,-12,34,-2,12,369,-2885,9
35,-12,34,-2,12,369,-2784,10
35,-12,35,-1,13,369,-2752,10
33,-10,36,0,12,371,-2939,11
33,-11,35,-1,10,369,-3034,8
34,-12,34,-2,11,368,-3000,9
35,-12,34,-2,11,368,-2884,9
35,-12,33,-2,11,367,-2761,8
36,-13,32,-4,11,366,-2656,7
36,-13,33,-2,13,367,-2924,9
35,-12,34,-2,12,367,-3240,9
34,-12,34,-2,12,367,-3221,9
34,-11,34,-1,12,367,-3138,9
33,-10,36,0,12,368,-3179,11
33,-10,34,-1,10,366,-3045,9
34,-11,34,-2,11,365,-2870,9
34,-11,34,-2,11,366,-3061,8
34,-12,34,-2,11,365,-3312,8
35,-13,32,-4,11,364,-3253,7
36,-13,33,-3,13,365,-3116,9
36,-11,36,-1,13,367,-3069,11
37,-10,38,-1,14,369,-2964,12
37,-10,39,0,15,369,-2911,13
37,-7,42,1,16,372,-3051,15
39,-7,43,0,15,373,-3087,15
41,-9,44,0,17,373,-3121,16
42,-10,44,0,17,374,-3231,16
42,-11,44,0,17,373,-3185,16
44,-12,43,-1,17,372,-2877,15
45,-11,46,0,20,375,-2912,19
45,-9,48,1,21,377,-3203,20
45,-9,48,1,20,377,-3251,20
45,-9,49,1,21,377,-3270,20
46,-10,52,3,22,379,-3573,23
47,-10,51,2,21,379,-3447,22
47,-8,52,2,21,379,-3073,22
48,-7,53,2,22,380,-2907,22
50,-9,53,1,23,381,-2725,23
51,-11,53,0,23,380,-2474,23
52,-10,55,1,26,381,-2435,24
53,-8,59,2,27,385,-2645,27
56,-6,63,4,29,389,-2681,30
58,-4,68,6,31,394,-2775,34
59,-1,73,8,33,398,-3197,37
60,0,74,7,32,399,-3343,36
64,0,76,7,34,402,-3204,38
67,1,81,8,37,405,-3117,41
70,3,85,9,39,409,-2951,44
73,3,88,8,41,412,-2681,46
76,4,92,10,44,416,-2588,50
79,4,96,11,46,420,-2858,53
81,5,100,13,48,424,-2822,55
84,8,105,14,51,428,-2804,59
85,10,111,17,53,433,-2987,63
88,12,115,17,53,436,-2992,64
92,12,118,17,56,439,-2783,66
95,11,120,17,58,442,-2800,69
97,12,122,18,59,444,-2842,70
99,11,123,16,60,444,-2699,70
100,12,125,18,63,447,-2638,73
101,11,127,19,63,449,-2798,75
102,10,128,19,64,449,-2790,76
102,11,129,19,64,449,-2857,76
103,13,132,22,66,452,-3085,78
104,14,133,21,65,453,-3137,78
104,13,132,20,65,452,-2916,77
105,13,132,20,65,452,-2972,77
104,12,130,19,64,450,-3002,76
103,9,126,17,63,446,-2841,73
103,7,125,17,64,445,-2748,74
101,7,124,18,63,444,-2909,73
99,6,122,17,61,441,-2854,71
97,5,120,18,60,439,-2848,70
95,5,120,18,60,438,-3020,70
93,5,116,17,56,434,-3130,67
93,3,113,15,55,431,-2949,64
91,0,109,14,54,427,-2910,63
88,0,106,13,52,423,-2870,60
86,-1,101,11,50,418,-2709,56
85,-4,98,10,50,416,-2591,55
82,-6,95,10,49,412,-2734,54
80,-8,90,9,47,408,-2691,51
79,-12,87,8,45,404,-2697,50
75,-13,85,9,44,402,-2858,48
72,-14,80,7,40,397,-3023,44
70,-13,77,6,38,393,-2956,41
67,-11,74,5,36,391,-2937,39
65,-12,71,4,34,388,-2860,37
65,-14,68,2,33,384,-2659,35
63,-15,66,2,34,382,-2545,34
61,-14,65,3,33,381,-2726,34
59,-12,63,3,30,379,-2751,32
57,-13,60,3,29,376,-2761,30
54,-12,61,4,29,376,-2879,30
52,-11,58,4,26,373,-2949,27
52,-13,55,2,25,370,-2784,25
50,-12,54,2,24,369,-2865,24
49,-12,52,1,23,367,-2901,23
48,-13,48,0,21,364,-2662,20
47,-14,46,-1,22,362,-2655,20
45,-12,46,0,21,361,-3210,20
45,-13,45,0,20,360,-3451,19
43,-14,43,0,19,357,-3513,18
41,-12,43,1,19,357,-3594,18
39,-11,43,0,16,356,-3737,16
37,-11,39,0,15,352,-3534,13
36,-12,36,-1,14,350,-3519,11
34,-11,34,-1,12,348,-3492,10
34,-11,32,-3,11,346,-3310,8
34,-11,32,-3,13,346,-3058,9
34,-10,33,-1,13,346,-3184,10
32,-10,31,-2,11,344,-3196,9
30,-11,30,-2,10,342,-3174,8
29,-10,31,0,11,343,-3426,8
28,-10,31,-1,9,342,-3709,7
29,-11,29,-2,9,341,-3535,6
30,-11,29,-2,9,341,-3253,7
30,-11,29,-3,9,340,-3181,6
31,-12,28,-4,9,339,-3202,5
31,-13,28,-4,11,340,-3253,6
31,-12,29,-2,11,340,-3474,7
31,-12,29,-2,10,340,-3417,7
30,-12,29,-2,10,340,-3471,7
29,-10,30,0,10,340,-3787,8
29,-10,30,0,9,340,-3900,7
30,-11,30,-2,8,339,-3690,6
30,-11,29,-2,9,338,-3691,6
30,-11,29,-2,9,338,-3725,6
30,-12,28,-4,9,337,-3665,5
31,-13,28,-4,10,337,-3604,6
30,-12,29,-2,10,338,-3864,7
30,-11,29,-2,10,337,-3895,6
30,-11,29,-2,10,337,-3734,7
29,-11,30,-1,10,338,-3778,8
28,-10,31,-1,9,338,-3908,7
29,-11,29,-2,8,337,-3681,6
29,-11,29,-2,9,337,-3693,6
30,-11,29,-2,8,336,-3708,6
31,-12,27,-4,8,335,-3527,5
31,-13,27,-4,10,335,-3282,6
30,-12,29,-2,11,336,-3411,7
30,-12,28,-2,9,335,-3400,7
30,-12,29,-2,10,335,-3528,7
29,-11,30,0,11,336,-3730,8
28,-10,30,0,9,336,-3906,7
29,-11,29,-2,8,334,-3696,6
30,-11,29,-2,9,334,-3644,6
29,-11,29,-2,9,335,-3646,6
30,-12,27,-3,8,333,-3564,5
31,-13,27,-4,9,332,-3362,6
30,-12,28,-3,10,333,-3526,7
30,-11,29,-2,9,333,-3560,7
29,-11,29,-2,10,333,-3558,7
29,-10,30,-1,10,334,-3667,8
28,-9,30,0,9,334,-3843,8
29,-10,29,-2,8,332,-3706,6
29,-11,29,-2,9,333,-3697,6
29,-11,29,-2,9,332,-3637,6
30,-12,27,-3,8,331,-3513,5
30,-13,27,-4,10,331,-3409,6
30,-12,28,-2,11,332,-3606,7
29,-12,28,-2,9,331,-3414,7
29,-11,28,-2,9,331,-3102,6
29,-11,29,-1,10,332,-3072,8
28,-9,31,0,9,332,-3201,7
29,-10,29,-1,8,330,-3021,6
29,-11,29,-2,9,330,-2988,6
29,-11,28,-2,9,330,-3054,6
29,-12,27,-3,8,329,-3040,5
30,-13,26,-4,9,328,-2816,5
29,-12,28,-2,10,329,-3069,7
29,-11,28,-2,9,329,-3405,7
29,-11,29,-2,10,329,-3427,7
29,-10,29,-1,10,330,-3435,7
28,-9,30,0,9,330,-3786,8
28,-10,29,-2,8,328,-3659,6
29,-11,28,-2,9,328,-3568,6
29,-11,28,-2,9,328,-3567,6
30,-11,27,-3,8,327,-3504,5
31,-13,27,-4,9,326,-3308,5
30,-12,28,-2,10,327,-3484,6
29,-11,28,-2,10,327,-3539,6
29,-11,28,-2,10,327,-3497,7
28,-10,29,-1,10,328,-3629,8
27,-9,30,0,9,328,-3848,7
28,-10,28,-2,8,326,-3640,6
29,-11,28,-2,9,326,-3584,6
29,-11,28,-2,9,326,-3639,6
29,-12,27,-4,8,325,-3650,5
30,-13,26,-4,9,324,-3500,5
30,-12,27,-2,10,325,-3617,7
29,-11,27,-2,9,325,-3577,7
29,-11,28,-2,9,325,-3545,7
28,-10,29,-1,10,326,-3605,8
27,-9,30,0,9,326,-3747,8
28,-10,28,-1,8,324,-3595,6
28,-11,28,-2,9,324,-3556,6
28,-10,28,-2,9,324,-3547,6
29,-11,27,-3,8,323,-3459,5
30,-13,26,-4,9,322,-3270,5
29,-12,28,-2,10,323,-3419,7
29,-11,28,-2,10,323,-3459,7
29,-11,28,-2,9,323,-3233,7
28,-10,29,-1,10,324,-3010,7
27,-9,29,0,9,324,-3162,7
28,-10,28,-1,8,322,-2914,6
28,-10,28,-1,9,322,-2836,6
29,-11,28,-2,8,322,-2835,5
29,-11,26,-3,8,321,-2762,5
30,-13,26,-4,8,320,-2580,5
29,-12,27,-2,10,321,-2739,7
29,-12,27,-2,9,321,-2800,6
29,-11,27,-2,9,321,-2769,6
28,-10,28,-1,10,321,-3065,7
27,-9,29,0,9,322,-3561,8
28,-10,28,-1,8,320,-3479,6
28,-11,28,-2,9,320,-3297,6
28,-11,27,-2,8,320,-3334,5
28,-11,26,-3,8,319,-3286,5
30,-12,26,-4,9,318,-3026,5
29,-11,27,-3,10,319,-3158,7
28,-11,27,-3,9,319,-3228,6
29,-11,27,-2,9,319,-3200,7
28,-11,28,-1,10,319,-3214,8
27,-9,29,0,9,320,-3402,8
27,-10,28,-1,7,318,-3236,6
27,-10,27,-2,8,318,-3133,6
28,-10,27,-2,8,318,-3151,5
28,-11,27,-3,8,317,-3126,5
29,-12,25,-4,8,315,-3038,5
29,-11,27,-2,10,317,-3188,7
28,-11,27,-2,10,317,-3180,6
29,-11,27,-2,9,317,-3118,6
28,-10,28,-1,9,317,-3156,7
27,-9,29,0,9,318,-3221,8
27,-10,28,-1,7,316,-2903,6
28,-10,27,-2,8,316,-2543,6
28,-10,27,-2,8,316,-2436,6
28,-11,26,-3,8,315,-2512,5
29,-12,25,-4,8,313,-2599,4
29,-11,27,-2,10,315,-2830,6
29,-11,27,-2,9,315,-2900,6
28,-11,27,-2,9,315,-2885,6
27,-10,28,-1,9,315,-2716,7
29,-12,25,-4,8,312,-1860,4
29,-12,27,-3,9,313,-2050,6
28,-11,27,-2,9,313,-2433,6
28,-11,27,-2,9,313,-2546,6
27,-10,27,-1,9,313,-2626,7
26,-9,29,0,9,314,-2814,8
27,-9,27,-1,7,312,-2666,6
27,-10,27,-1,9,312,-2539,6
28,-10,26,-2,8,312,-2496,6
28,-11,26,-3,8,311,-2402,5
29,-12,25,-4,8,310,-2193,4
28,-12,26,-3,10,311,-2290,6
29,-10,29,-2,10,313,-2386,8
31,-8,33,-1,12,318,-2363,11
32,-6,36,0,13,320,-2441,13
33,-4,40,2,15,323,-2685,15
37,-6,42,1,15,325,-2557,16
41,-8,45,2,19,329,-2413,19
44,-8,48,2,21,331,-2428,21
46,-8,50,2,22,333,-2420,22
49,-10,51,0,24,334,-2244,24
50,-10,54,2,27,337,-2384,26
50,-6,55,3,26,338,-2552,27
50,-5,57,3,26,338,-2586,28
51,-6,58,4,28,340,-2728,30
51,-6,60,6,28,341,-2956,31
51,-6,59,4,25,339,-2814,29
52,-7,58,4,27,339,-2699,29
52,-7,58,3,27,339,-2685,29
52,-8,57,3,27,338,-2614,28
53,-12,54,1,26,335,-2453,26
53,-13,54,2,28,336,-2614,28
52,-13,55,2,28,336,-2739,28
51,-12,55,2,27,336,-2650,28
49,-10,54,3,26,335,-2655,27
48,-8,56,5,26,335,-2864,28
48,-9,54,3,24,333,-2762,26
48,-10,53,3,24,332,-2624,25
46,-11,50,2,22,329,-2675,23
46,-11,48,1,22,328,-2658,22
47,-13,46,0,21,325,-2474,20
45,-14,45,0,22,324,-2547,20
43,-13,44,0,20,323,-2666,20
41,-11,43,0,19,322,-2631,19
39,-11,41,1,19,320,-2705,18
37,-10,41,2,18,319,-2900,17
36,-10,38,1,14,316,-2782,14
35,-9,36,0,14,314,-2652,13
34,-10,34,0,13,312,-2696,12
32,-10,31,-1,11,309,-2654,9
31,-10,28,-3,10,306,-2441,7
29,-10,27,-2,11,305,-2502,7
27,-10,25,-2,9,303,-2714,6
27,-11,25,-2,8,303,-2692,6
26,-10,26,-2,8,303,-2721,6
25,-9,27,0,9,304,-2909,7
25,-9,26,-1,7,302,-2874,5
26,-10,25,-1,7,302,-2772,5
26,-10,25,-2,8,301,-2787,5
26,-11,25,-3,7,301,-2668,4
28,-12,23,-4,7,299,-2202,3
28,-12,24,-3,9,301,-2164,5
27,-11,25,-2,8,301,-2475,6
27,-10,25,-2,8,301,-2612,6
26,-10,26,-1,8,300,-2612,6
25,-9,27,0,9,302,-2736,7
25,-9,26,-1,7,300,-2650,5
26,-10,25,-2,7,300,-2511,5
26,-10,25,-2,7,299,-2518,5
26,-10,25,-2,7,299,-2456,5
27,-12,23,-4,7,298,-2252,3
27,-11,25,-3,9,299,-2273,5
27,-11,25,-2,9,299,-2440,5
26,-10,25,-2,8,299,-2417,5
26,-10,26,-1,9,299,-2430,6
25,-9,27,0,9,300,-2649,7
25,-9,26,-1,6,299,-2644,5
25,-10,25,-2,7,298,-2435,5
26,-10,25,-2,8,298,-2355,5
26,-10,24,-2,8,297,-2283,5
27,-12,23,-4,7,296,-2189,3
27,-11,24,-3,9,297,-2328,5
26,-10,25,-2,8,297,-2551,5
26,-10,25,-2,8,297,-2540,6
26,-10,25,-2,8,297,-2543,6
25,-8,27,0,9,298,-2711,8
25,-8,26,-1,7,297,-2654,5
25,-9,25,-2,7,296,-2467,5
23,-10,28,-1,6,292,-2486,2
18,-13,36,0,1,284,-2502,-2
14,-17,42,0,-2,275,-2355,-8
9,-19,50,2,-4,269,-2351,-12
4,-16,54,3,-6,266,-2565,-14
6,-8,48,1,-5,272,-2566,-11
12,0,36,-1,0,284,-2598,-3
23,15,16,-5,10,308,-2779,11
42,41,-21,-16,23,342,-2766,32
66,64,-63,-28,43,382,-2600,58
92,86,-105,-39,63,423,-2616,85
117,107,-148,-51,83,464,-2584,113
144,128,-192,-64,103,504,-2372,139
170,149,-233,-74,125,547,-2322,168
195,169,-274,-84,144,587,-2471,195
220,183,-312,-92,164,624,-2390,221
245,187,-343,-98,183,656,-2381,244
265,187,-366,-102,198,681,-2573,263
281,190,-386,-107,208,700,-2597,276
290,192,-400,-111,215,712,-2445,285
296,185,-404,-110,219,714,-2467,288
298,173,-400,-109,219,710,-2451,287
295,163,-391,-107,215,699,-2281,280
286,155,-375,-102,210,684,-2276,271
274,144,-355,-96,200,665,-2451,259
260,131,-330,-89,188,641,-2434,243
241,112,-297,-80,173,609,-2436,223
217,92,-257,-68,156,573,-2636,200
192,70,-217,-59,134,530,-2680,171
167,43,-173,-48,114,486,-2558,142
141,16,-127,-35,94,441,-2637,113
116,-5,-86,-24,74,399,-2637,86
91,-24,-46,-16,53,358,-2488,58
65,-43,-5,-6,34,318,-2485,32
36,-59,23,-2,12,276,-2696,4
7,-83,28,-1,-10,230,-2682,-26
-17,-93,28,-1,-29,194,-2673,-50
-33,-79,30,0,-38,185,-2818,-59
-35,-63,30,0,-40,190,-2807,-59
-24,-53,29,0,-31,207,-2554,-48
-9,-40,29,-1,-19,231,-2523,-32
3,-29,28,-1,-9,252,-2521,-18
15,-21,27,-2,-1,269,-2351,-7
23,-14,27,-2,6,282,-2260,1
23,-12,28,-1,7,284,-2450,3
22,-11,28,-1,6,284,-2441,3
22,-11,28,0,6,284,-2436,3
22,-10,30,0,7,285,-2577,4
22,-10,29,0,5,284,-2603,3
22,-11,28,-1,5,283,-2390,2
22,-11,28,-1,5,283,-2407,2
23,-11,28,-1,5,283,-2463,2
23,-12,27,-3,5,281,-2393,0
23,-12,27,-2,6,282,-2318,2
23,-12,28,-1,6,283,-2494,3
22,-11,28,-1,6,282,-2508,3
23,-11,28,-1,6,282,-2546,3
22,-10,30,0,7,283,-2734,4
21,-10,30,0,5,282,-2828,3
22,-11,28,-1,5,281,-2624,2
22,-11,28,-1,6,281,-2598,2
22,-11,28,-1,5,281,-2557,2
23,-12,26,-3,5,279,-2422,1
24,-13,27,-2,6,280,-2328,2
23,-12,28,-1,6,281,-2466,3
23,-12,28,-1,6,280,-2438,3
23,-11,28,-1,6,280,-2425,3
21,-10,30,0,7,282,-2531,4
21,-10,30,0,5,281,-2597,3
22,-11,28,-1,5,280,-2417,2
22,-11,28,-1,6,280,-2475,2
22,-11,27,-1,5,279,-2471,2
23,-12,26,-3,4,278,-2326,1
23,-13,27,-2,6,278,-2200,2
22,-12,28,-1,6,279,-2410,3
23,-11,28,-1,5,279,-2405,3
22,-11,28,-1,5,279,-2429,3
21,-10,30,0,7,280,-2630,4
21,-10,29,0,5,279,-2804,3
21,-11,28,0,5,278,-2704,2
22,-11,28,-1,6,278,-2696,2
22,-11,28,-1,5,277,-2650,2
23,-12,27,-2,5,276,-2504,1
24,-12,28,-2,7,278,-2386,2
25,-10,31,0,8,281,-2617,6
25,-9,32,0,8,281,-2624,6
25,-9,33,0,9,283,-2595,7
26,-7,37,2,10,286,-2708,10
27,-7,38,2,10,287,-2758,10
29,-9,38,1,11,287,-2503,10
30,-10,38,1,12,287,-2519,10
30,-10,38,0,11,286,-2554,10
32,-10,38,0,11,286,-2477,9
34,-10,41,0,15,289,-2375,12
33,-9,42,1,15,290,-2542,13
34,-9,42,1,14,290,-2510,13
34,-10,43,1,15,291,-2481,14
35,-10,46,3,17,293,-2601,16
34,-7,47,3,15,294,-2707,16
35,-6,47,3,15,294,-2509,15
37,-8,48,3,17,294,-2458,16
38,-9,48,3,17,295,-2424,17
40,-10,47,2,17,294,-2326,16
42,-10,50,2,20,296,-2158,19
43,-7,55,4,23,301,-2322,23
45,-5,59,5,24,305,-2312,25
48,-3,64,6,26,309,-2282,28
48,-1,67,8,28,313,-2386,31
50,0,70,9,28,315,-2504,32
53,1,73,9,29,318,-2280,34
57,2,78,10,32,322,-2243,37
60,4,82,11,34,325,-2254,39
63,5,84,10,36,329,-2155,41
66,3,87,10,39,331,-2038,44
69,5,92,13,42,336,-2261,48
71,7,97,14,43,340,-2284,51
74,9,101,16,46,345,-2302,54
76,12,107,18,49,350,-2440,58
78,14,112,19,49,353,-2569,60
82,12,113,19,51,355,-2344,61
84,12,116,19,54,358,-2341,63
85,13,117,19,54,359,-2388,64
87,13,119,18,55,361,-2331,65
90,12,119,18,57,362,-2193,66
91,11,122,20,59,364,-2390,69
91,11,123,20,58,364,-2428,69
91,11,124,21,58,365,-2386,70
92,13,127,22,60,368,-2387,73
92,14,129,23,60,369,-2435,73
93,14,127,22,59,367,-2189,71
92,13,125,21,59,366,-2171,70
90,12,122,20,58,363,-2258,69
91,10,120,19,57,361,-2125,67
91,7,117,17,57,358,-1912,66
88,8,117,18,57,357,-2121,66
86,6,115,18,55,355,-2215,64
85,5,113,18,54,352,-2297,63
83,5,111,18,53,351,-2521,63
80,5,109,18,51,349,-2834,61
80,1,105,15,48,344,-2700,57
77,0,101,14,47,341,-2708,54
75,1,98,14,45,337,-2733,52
73,-1,93,12,43,332,-2651,49
72,-6,89,10,43,329,-2459,47
69,-7,86,10,42,326,-2569,46
68,-10,82,9,40,322,-2555,43
66,-13,79,8,38,318,-2475,42
63,-14,76,8,37,315,-2524,40
58,-13,74,9,34,312,-2667,37
56,-11,70,7,31,308,-2496,34
54,-11,66,6,30,305,-2501,31
53,-12,64,5,28,302,-2541,30
52,-14,61,4,27,299,-2481,27
51,-15,58,2,27,296,-2307,26
49,-13,58,4,27,296,-2491,27
45,-12,55,3,24,293,-2567,24
44,-13,53,3,23,292,-2510,23
42,-11,53,4,23,291,-2552,23
40,-11,51,5,20,289,-2757,22
39,-12,48,2,18,285,-2548,18
38,-11,47,2,18,284,-2487,18
37,-10,45,2,16,282,-2522,16
36,-13,41,0,15,279,-2473,14
35,-14,39,0,14,277,-2314,12
34,-12,39,1,15,277,-2439,13
33,-14,38,0,14,275,-2465,12
31,-14,37,0,13,274,-2425,11
29,-12,37,1,13,273,-2300,11
26,-9,35,2,10,272,-2255,10
25,-11,31,0,7,267,-2026,5
24,-11,30,0,8,266,-1973,5
22,-9,28,0,6,264,-1951,3
22,-9,27,-1,5,263,-1818,2
23,-11,26,-2,6,262,-1657,2
22,-10,26,-1,7,263,-1819,3
19,-11,24,-1,5,260,-1881,1
19,-11,24,-1,4,259,-1842,1
18,-10,24,0,5,260,-2000,2
18,-10,26,0,4,260,-2613,2
18,-10,24,0,2,259,-2798,0
19,-11,24,-1,3,258,-2849,0
19,-11,23,-1,3,258,-2903,0
19,-12,23,-2,3,257,-2848,0
20,-13,21,-3,4,256,-2647,0
20,-12,23,-2,4,257,-2788,1
20,-12,23,-2,4,257,-2843,0
19,-12,23,-1,4,257,-2838,1
18,-11,24,0,5,258,-2891,1
17,-9,25,0,4,259,-3069,2
18,-10,24,-1,2,257,-2928,0
19,-11,23,-1,3,257,-2885,0
18,-11,23,-1,3,256,-2908,0
19,-11,22,-2,3,256,-2856,0
20,-12,21,-4,4,255,-2654,0
19,-12,23,-2,5,256,-2781,1
19,-11,23,-1,4,256,-2877,0
18,-11,23,-1,4,256,-2858,1
18,-10,24,0,5,256,-2885,2
17,-9,26,0,4,257,-3048,2
18,-10,24,-1,3,255,-2882,0
18,-11,23,-1,3,255,-2773,0
19,-11,23,-1,3,255,-2615,0
19,-11,22,-2,3,254,-2415,0
20,-12,21,-3,3,253,-2239,0
19,-12,23,-2,5,254,-2544,1
18,-11,23,-1,4,254,-2688,1
19,-11,23,-1,4,254,-2680,1
18,-11,24,0,5,255,-2807,1
17,-9,25,0,5,255,-3067,2
17,-10,24,0,2,253,-2944,0
18,-11,23,-1,3,253,-2845,0
18,-11,23,-1,3,253,-2883,0
19,-11,22,-2,3,252,-2870,0
20,-12,21,-4,3,251,-2639,0
19,-12,22,-2,4,253,-2711,1
19,-11,23,-1,4,253,-2765,1
19,-11,23,-1,4,252,-2696,1
18,-10,23,-1,4,253,-2681,2
17,-9,25,0,4,254,-2763,2
17,-10,23,-1,2,252,-2562,0
18,-10,23,-1,4,252,-2435,0
18,-10,23,-1,4,252,-2435,0
18,-11,22,-2,3,251,-2307,0
20,-12,21,-4,3,250,-2042,-1
19,-11,22,-2,5,251,-2135,1
18,-11,23,-2,4,251,-2242,1
18,-11,22,-1,3,251,-2192,1
17,-10,23,0,4,251,-2214,1
16,-9,24,0,4,252,-2421,2
17,-9,23,0,3,251,-2313,0
18,-10,23,-1,3,250,-2194,0
18,-10,22,-1,3,250,-2216,0
18,-11,22,-2,3,249,-2185,0
19,-12,21,-3,3,248,-2036,0
19,-11,22,-2,5,249,-2189,0
19,-11,22,-1,4,249,-2330,0
18,-11,22,-1,4,249,-2325,0
18,-11,23,-1,4,249,-2369,1
17,-9,25,0,4,250,-2581,2
17,-10,23,0,2,249,-2486,0
18,-10,23,-1,3,248,-2378,0
18,-10,23,-1,3,248,-2374,0
18,-11,22,-2,3,248,-2300,0
19,-12,20,-3,3,246,-2083,0
20,-12,22,-2,5,248,-2167,0
19,-11,22,-1,4,248,-2324,0
18,-11,22,-1,4,248,-2308,1
18,-10,23,0,4,248,-2332,1
17,-9,24,0,4,248,-2494,2
17,-10,23,0,3,247,-2364,0
18,-10,23,-1,4,247,-2233,0
17,-10,23,-1,3,247,-2264,0
18,-10,22,-2,3,246,-2245,0
19,-12,20,-3,3,245,-2052,-1
19,-12,22,-2,5,246,-2132,0
18,-11,22,-1,4,246,-2283,0
17,-10,22,-1,4,246,-2256,1
18,-10,23,-1,4,246,-2291,1
17,-9,24,0,5,248,-2492,2
17,-10,23,0,2,246,-2415,0
18,-10,22,-1,3,245,-2302,0
18,-10,22,-1,3,245,-2307,0
18,-11,22,-1,3,245,-2280,0
19,-12,20,-3,3,244,-2113,0
19,-11,22,-2,4,244,-2144,0
18,-11,22,-1,4,244,-2253,1
18,-11,22,-1,4,244,-2190,1
18,-10,22,-1,4,245,-2206,1
16,-8,24,0,4,246,-2488,2
17,-9,23,0,2,244,-2463,0
18,-10,23,0,3,244,-2316,0
18,-11,22,-1,3,244,-2301,0
18,-11,22,-2,3,243,-2124,0
19,-12,20,-3,3,242,-1523,0
18,-11,21,-2,5,243,-1237,0
18,-11,22,-1,4,244,-1240,1
17,-10,22,-1,4,243,-1154,1
17,-10,23,-1,3,243,-1136,1
16,-9,24,0,4,244,-1425,2
17,-9,23,0,2,243,-1843,0
17,-10,22,-1,3,243,-2058,0
17,-10,22,-1,3,242,-2229,0
18,-11,22,-2,3,242,-2264,0
18,-12,20,-3,3,240,-2071,0
18,-11,21,-2,5,241,-2063,0
18,-10,22,-2,4,242,-2194,1
18,-11,22,-1,4,242,-2163,1
18,-11,22,-1,4,242,-2170,1
16,-9,24,0,5,243,-2361,3
16,-9,23,0,2,242,-2346,0
17,-10,22,-1,3,241,-2207,0
17,-10,21,-1,3,241,-2196,0
17,-10,21,-1,3,240,-2136,0
18,-12,20,-3,3,239,-1982,0
18,-12,21,-2,5,240,-2034,0
18,-11,22,-1,5,240,-2131,1
18,-10,22,-1,4,240,-2052,1
17,-10,22,-1,4,240,-2048,1
16,-9,24,0,5,241,-2227,2
16,-9,23,0,2,240,-2221,0
17,-10,22,-1,3,239,-2057,0
17,-10,21,-1,3,239,-2178,0
17,-10,21,-2,3,239,-2171,0
18,-12,19,-3,2,237,-1940,-1
18,-12,20,-2,5,238,-2021,0
17,-11,21,-1,4,239,-2212,1
17,-11,22,-1,4,239,-2071,1
17,-10,22,-1,4,239,-2010,1
16,-9,24,0,5,240,-2176,2
16,-9,23,0,3,239,-2134,0
17,-10,21,-1,3,238,-1962,0
17,-10,21,-2,3,238,-1987,0
17,-10,21,-2,3,237,-1988,0
18,-11,19,-3,2,236,-1948,-1
19,-11,20,-2,4,237,-1974,0
18,-11,21,-1,4,237,-2033,1
17,-10,21,-1,3,237,-1970,0
17,-10,22,-1,4,237,-1950,1
16,-9,24,0,4,239,-2119,2
16,-9,23,0,2,237,-2129,0
17,-9,22,-1,3,237,-1959,0
17,-10,21,-1,3,236,-2015,0
17,-10,21,-1,3,236,-2097,0
18,-11,20,-3,2,234,-2012,-1
19,-11,21,-2,5,236,-1880,1
21,-8,26,0,6,241,-1942,4
22,-7,29,0,7,244,-1881,6
23,-6,32,1,8,246,-1901,8
25,-5,36,3,11,250,-2096,11
28,-6,39,3,12,252,-2136,13
32,-8,42,3,14,255,-1994,15
34,-8,44,3,16,257,-2056,16
37,-8,47,3,18,260,-2034,18
40,-10,47,2,19,260,-1883,18
40,-8,48,2,21,262,-1844,20
39,-5,51,4,21,263,-1996,22
41,-6,52,4,21,264,-1927,22
41,-7,53,5,22,265,-1910,24
41,-6,55,6,23,266,-2101,25
41,-6,54,5,21,265,-2139,23
42,-6,53,5,21,265,-1982,23
41,-7,53,5,22,265,-2105,23
42,-9,51,3,21,263,-2192,22
43,-13,48,1,21,260,-2066,20
43,-13,49,2,22,261,-2046,22
42,-12,50,3,23,262,-2267,23
40,-11,49,3,21,260,-2278,21
38,-9,48,3,20,259,-2256,21
37,-8,50,5,21,261,-2357,22
37,-8,49,5,19,260,-2404,21
36,-9,46,3,18,257,-2226,18
36,-10,44,2,18,255,-2277,17
35,-11,43,2,17,254,-2339,17
35,-13,39,0,15,250,-2227,14
34,-14,38,0,16,249,-2138,14
31,-11,38,1,15,249,-2320,13
30,-11,36,1,13,247,-2333,12
28,-11,34,1,12,245,-2318,11
27,-10,34,2,12,244,-2471,11
24,-8,33,1,9,242,-2535,9
24,-9,30,0,8,240,-2349,7
22,-10,28,0,7,237,-2371,5
20,-8,25,-1,5,234,-2376,3
20,-9,22,-2,4,232,-2278,0
18,-11,20,-2,4,229,-2224,0
17,-10,20,-2,3,229,-2397,0
16,-10,20,-2,3,229,-2364,0
16,-10,20,-1,3,229,-2344,0
16,-9,22,0,4,230,-2472,2
15,-8,22,0,2,230,-2572,1
16,-9,20,-1,2,228,-2320,0
16,-9,20,-1,3,229,-2275,0
16,-10,20,-1,2,228,-2276,0
17,-11,18,-3,2,227,-2179,-1
17,-11,19,-3,3,227,-2103,0
16,-10,20,-1,3,228,-2298,0
16,-10,20,-1,3,228,-2281,0
16,-10,20,-1,3,227,-2259,0
15,-9,22,0,4,229,-2360,2
15,-8,21,0,2,228,-2512,0
16,-9,20,-1,2,227,-2339,0
16,-9,20,-2,3,227,-2311,0
16,-10,20,-2,2,227,-2291,0
16,-10,19,-3,2,225,-2160,-1
17,-11,18,-3,3,225,-2066,0
16,-10,20,-2,4,226,-2259,0
16,-10,20,-1,3,226,-2297,0
16,-10,20,-1,3,226,-2342,0
15,-9,21,0,4,227,-2461,1
15,-8,21,0,2,227,-2550,1
16,-9,20,-1,2,226,-2335,0
16,-10,20,-1,3,225,-2327,0
16,-9,20,-2,2,225,-2335,0
16,-10,19,-3,2,224,-2220,-1
17,-11,18,-3,3,224,-2102,0
17,-10,19,-2,4,225,-2281,0
16,-10,20,-1,3,225,-2279,0
16,-9,20,-1,3,225,-2276,0
16,-8,22,0,4,226,-2473,2
15,-8,22,0,2,226,-2570,1
14,-9,21,-1,1,223,-2341,-1
10,-10,27,0,-1,216,-2287,-5
5,-14,35,1,-5,208,-2283,-10
1,-17,41,2,-10,200,-2240,-16
-3,-18,47,2,-11,194,-2166,-21
-4,-12,46,3,-11,197,-2379,-18
0,-4,37,0,-8,207,-2398,-12
8,5,20,-3,0,223,-2365,-2
23,30,-9,-11,13,255,-2347,18
44,56,-49,-21,30,294,-2350,42
70,77,-92,-34,48,334,-2044,68
96,99,-134,-45,70,375,-1928,96
122,120,-176,-56,89,417,-1755,123
148,141,-220,-68,109,457,-1227,149
175,161,-262,-80,131,498,-787,177
200,178,-300,-88,151,538,-983,204
225,187,-335,-96,169,572,-1178,229
287,168,-400,-106,212,634,-803,279
280,159,-388,-104,206,620,-701,270
270,149,-370,-100,198,602,-541,258
256,137,-347,-92,189,581,-795,245
239,120,-318,-84,175,553,-1062,226
219,100,-281,-74,159,518,-1183,204
194,80,-240,-62,141,479,-1331,179
168,57,-196,-51,119,436,-1511,151
143,28,-152,-40,97,389,-1351,120
117,3,-108,-28,77,346,-1360,92
91,-15,-67,-18,57,306,-1307,65
66,-34,-27,-9,37,265,-1154,37
39,-52,8,-3,17,223,-979,9
10,-72,22,-1,-4,180,-1175,-18
-17,-91,24,-1,-26,136,-1239,-47
-37,-87,24,-1,-40,115,-1285,-64
-46,-69,25,0,-44,116,-1441,-65
-40,-56,26,1,-40,129,-1712,-57
-26,-45,24,0,-30,151,-1559,-44
-11,-33,24,0,-18,174,-1511,-29
0,-24,24,0,-8,193,-1530,-16
10,-16,23,-1,-2,208,-1446,-7
14,-12,22,-2,1,213,-1249,-3
14,-12,23,0,2,214,-1421,-2
13,-11,24,0,1,214,-1458,-2
13,-11,23,0,1,214,-1463,-1
12,-10,25,0,2,215,-1557,0
11,-9,25,1,1,215,-1709,0
12,-10,24,0,0,214,-1441,-2
13,-11,23,0,0,213,-1282,-2
13,-11,23,0,0,213,-1300,-3
13,-11,22,-1,0,212,-1362,-3
14,-13,22,-2,1,212,-1202,-3
14,-12,23,0,2,213,-1211,-2
13,-12,23,0,1,213,-1185,-2
13,-11,23,0,1,212,-1201,-2
12,-10,24,0,2,213,-1333,-1
12,-9,25,1,1,214,-1507,-1
12,-10,24,0,0,212,-1223,-2
12,-10,24,0,1,212,-1126,-2
13,-11,23,0,1,212,-1164,-2
13,-11,22,-1,0,211,-1178,-3
14,-13,21,-2,0,210,-1006,-3
14,-12,23,0,2,211,-1214,-1
13,-11,23,0,1,211,-1460,-2
13,-11,23,0,1,212,-1455,-2
12,-11,24,0,1,212,-1418,-1
11,-9,25,1,1,213,-1612,0
12,-10,23,0,0,211,-1451,-2
12,-10,24,0,1,211,-1338,-2
12,-10,23,0,1,210,-1379,-2
13,-11,22,-1,0,210,-1466,-3
14,-12,21,-2,1,209,-1456,-3
13,-11,22,-1,2,210,-1631,-2
13,-11,23,0,1,210,-1610,-2
13,-11,23,0,1,210,-1419,-1
12,-10,24,0,2,211,-1482,-1
11,-9,25,1,1,211,-2032,-1
12,-10,23,0,0,209,-2181,-2
12,-10,23,0,0,209,-2222,-2
13,-10,23,0,0,209,-2026,-2
13,-11,23,-1,0,209,-1610,-3
15,-11,24,-2,2,210,-1223,-2
16,-10,27,0,4,213,-1283,0
16,-9,27,0,3,213,-1500,0
17,-8,30,0,5,216,-1417,2
18,-7,33,2,6,218,-1520,4
18,-7,35,3,7,220,-1936,6
20,-8,33,2,5,218,-2063,5
21,-9,33,1,7,219,-2174,4
21,-9,34,1,7,219,-2211,5
23,-9,36,1,8,220,-2070,6
25,-10,36,0,9,220,-1860,6
24,-8,37,2,11,222,-1936,8
24,-9,38,2,10,223,-1810,9
26,-10,39,2,11,224,-1969,10
26,-9,41,3,12,225,-2222,11
25,-5,44,5,12,227,-2431,12
26,-6,43,4,11,226,-2143,11
28,-8,44,4,13,227,-2095,12
29,-9,44,3,13,227,-1822,12
30,-9,44,3,13,227,-1469,12
33,-8,46,2,15,230,-1245,14
36,-6,52,5,19,236,-1259,19
38,-3,57,7,20,241,-1232,22
40,-2,60,7,22,244,-1147,24
40,-1,63,9,24,246,-1135,27
42,1,69,11,25,251,-1326,30
46,2,72,11,25,253,-1174,30
49,4,75,11,29,257,-1057,33
52,6,79,12,31,261,-992,36
55,5,82,12,32,264,-892,38
59,3,84,11,35,265,-683,40
61,6,90,14,38,271,-797,44
63,8,95,15,40,276,-947,47
66,10,99,17,42,280,-906,50
69,13,105,19,45,285,-918,54
70,14,109,21,47,289,-1178,57
74,13,111,20,47,291,-1065,57
75,13,112,20,49,292,-961,59
77,14,114,20,50,294,-988,60
79,14,116,20,51,296,-992,61
81,11,115,19,52,296,-810,61
82,11,117,20,54,298,-869,64
81,11,118,20,54,298,-982,64
82,13,120,21,55,300,-966,66
84,14,123,23,56,302,-1008,68
82,15,124,24,56,303,-1225,68
83,14,122,22,54,300,-1103,66
82,13,119,21,53,298,-1004,64
81,11,117,21,53,296,-1042,63
81,8,115,19,52,294,-1042,62
80,7,112,17,51,291,-846,59
79,6,111,18,52,290,-886,60
76,6,109,18,49,287,-988,58
75,5,106,18,48,285,-916,57
72,5,105,18,47,283,-883,56
70,4,103,18,46,281,-1056,55
68,1,98,16,43,277,-994,51
66,2,95,15,41,274,-878,48
64,0,91,14,39,269,-894,46
63,-3,87,12,38,265,-886,43
62,-7,82,9,36,260,-714,40
59,-9,79,9,36,258,-809,39
58,-12,76,9,35,255,-904,38
55,-14,72,8,32,250,-873,35
52,-14,69,8,31,247,-912,33
48,-11,68,9,29,245,-1114,32
45,-10,64,8,24,241,-1010,27
43,-11,60,7,24,238,-871,25
42,-12,59,6,23,236,-904,24
41,-13,56,5,21,233,-870,22
41,-14,53,3,21,230,-655,20
38,-13,52,4,21,230,-692,20
36,-13,49,4,18,227,-833,18
34,-12,48,4,17,226,-879,17
32,-11,47,4,17,224,-951,16
30,-11,46,5,16,223,-1176,16
29,-11,43,4,13,220,-1028,13
28,-10,42,3,13,219,-837,12
26,-11,39,2,12,216,-826,10
25,-12,37,1,10,214,-794,8
25,-13,34,0,9,211,-590,6
24,-14,34,0,10,211,-623,7
23,-14,33,1,9,209,-802,6
21,-12,32,0,8,208,-813,5
19,-11,31,1,7,207,-886,5
15,-9,30,2,5,206,-1122,4
14,-10,26,0,2,202,-1014,0
13,-9,24,0,2,201,-792,0
12,-8,23,0,1,199,-842,-1
12,-9,23,0,1,199,-878,-1
13,-10,21,-2,1,197,-649,-3
12,-11,20,-1,1,196,-692,-2
10,-11,19,-1,0,195,-937,-3
10,-11,19,0,0,195,-1124,-3
10,-10,19,0,0,195,-1234,-3
8,-9,21,1,0,196,-1460,-2
9,-9,20,0,-1,194,-1311,-4
9,-10,19,0,-1,194,-1010,-4
9,-10,19,-1,0,194,-1105,-4
10,-11,19,-1,0,193,-1099,-4
11,-12,17,-3,0,192,-806,-5
11,-11,18,-2,0,193,-728,-4
10,-11,19,-1,0,193,-847,-3
10,-11,19,-1,0,193,-796,-3
10,-11,19,0,0,193,-819,-3
9,-9,21,1,0,195,-1079,-1
9,-9,20,0,-1,193,-1138,-3
9,-10,19,0,-1,193,-950,-4
10,-10,19,-1,0,193,-906,-3
10,-11,18,-1,0,192,-920,-4
11,-12,17,-3,-1,191,-801,-5
11,-12,18,-2,0,192,-830,-4
10,-11,19,-1,0,192,-986,-3
10,-11,19,-1,0,192,-863,-3
10,-11,19,0,0,192,-815,-2
8,-9,21,1,0,193,-1010,-1
9,-9,20,0,-1,192,-1010,-3
9,-10,19,0,-1,192,-880,-4
9,-10,18,-1,0,191,-906,-4
10,-11,19,-1,-1,191,-912,-4
11,-12,17,-3,-1,190,-766,-5
11,-12,18,-2,0,190,-706,-4
10,-11,18,-1,0,191,-873,-3
9,-11,19,-1,0,191,-925,-3
10,-10,19,0,0,191,-1000,-2
8,-9,21,1,0,192,-1144,-1
8,-9,20,0,-1,191,-1168,-4
9,-10,19,0,0,190,-1059,-4
9,-10,18,-1,0,190,-1130,-4
9,-10,18,-1,0,190,-1195,-3
11,-12,17,-2,-1,188,-1075,-5
11,-11,18,-2,0,189,-1002,-4
10,-11,18,-1,0,190,-1092,-3
10,-11,18,-1,0,190,-1122,-3
9,-10,19,0,0,190,-1244,-3
8,-9,20,0,0,191,-1439,-2
8,-9,20,0,-1,190,-1333,-3
9,-10,19,0,0,189,-1186,-4
9,-10,19,0,0,189,-1399,-4
10,-11,18,-1,0,189,-1478,-4
10,-11,16,-2,-1,187,-1340,-5
10,-11,17,-2,0,188,-1300,-4
10,-11,18,-1,0,189,-1471,-3
9,-10,18,-1,0,188,-1509,-3
9,-10,19,0,0,188,-1524,-3
8,-9,21,1,0,190,-1675,-2
9,-9,20,0,-1,189,-1687,-3
10,-10,18,-1,-1,188,-1506,-4
10,-10,18,-1,0,188,-1526,-4
10,-11,18,-1,0,187,-1547,-4
10,-12,16,-2,-1,186,-1397,-5
10,-11,17,-2,0,187,-1355,-4
9,-11,18,-1,0,187,-1559,-3
9,-10,18,-1,0,187,-1579,-3
9,-10,18,0,0,187,-1557,-2
8,-9,20,1,0,189,-1690,-1
8,-9,19,0,-1,187,-1704,-3
9,-9,18,0,-1,187,-1497,-4
9,-10,18,-1,0,187,-1491,-4
9,-10,18,-1,0,186,-1476,-4
10,-12,16,-2,-1,185,-1336,-5
10,-11,17,-2,0,186,-1300,-3
10,-11,18,-1,0,187,-1512,-3
9,-10,18,-1,0,186,-1505,-3
9,-10,18,0,0,186,-1474,-3
9,-9,20,0,0,187,-1629,-1
8,-9,19,0,-1,186,-1697,-3
9,-10,19,0,0,186,-1515,-4
9,-10,18,0,0,186,-1490,-3
9,-10,18,-1,-1,185,-1472,-3
10,-11,16,-3,-1,184,-1332,-5
10,-11,17,-2,0,184,-1238,-4
9,-10,18,-1,0,185,-1402,-3
9,-10,18,0,0,185,-1331,-3
9,-10,18,0,0,185,-1250,-3
8,-9,20,0,0,187,-1373,-1
8,-9,19,0,-1,186,-1446,-2
9,-9,18,0,-1,185,-1240,-4
9,-10,18,-1,0,184,-1232,-4
9,-10,18,-1,0,184,-1158,-4
10,-11,16,-2,-1,183,-951,-5
10,-12,17,-2,0,183,-834,-4
10,-11,18,-1,0,184,-1040,-3
10,-10,18,-1,0,184,-1066,-3
9,-10,18,0,0,184,-1067,-3
8,-9,20,0,0,185,-1252,-1
8,-9,19,0,-1,184,-1396,-3
8,-10,18,0,-1,183,-1253,-4
9,-10,17,0,0,183,-1260,-4
9,-10,17,-1,0,183,-1129,-4
10,-11,16,-2,-1,181,-995,-5
10,-12,16,-2,0,182,-1002,-4
9,-10,17,-1,0,183,-1275,-3
9,-10,18,0,0,183,-1225,-3
9,-10,18,0,0,183,-1163,-3
8,-9,19,0,0,184,-1278,-2
8,-8,19,0,0,183,-1380,-3
8,-9,18,0,-1,182,-1243,-4
9,-10,18,0,0,182,-1288,-4
9,-10,17,-1,0,182,-1274,-4
10,-11,16,-2,-1,180,-957,-5
10,-11,16,-2,0,181,-631,-4
10,-10,18,-1,0,182,-781,-3
9,-10,17,-1,0,181,-1046,-3
9,-10,17,0,0,181,-1320,-3
8,-9,19,0,1,182,-1178,-1
7,-9,19,0,-1,182,-1431,-2
9,-9,18,0,-1,181,-1540,-4
9,-10,18,0,0,181,-1655,-4
9,-10,18,0,0,180,-1816,-4
10,-11,16,-2,-1,179,-1730,-5
10,-12,16,-2,0,179,-1405,-4
