Lead 1,Lead 2,Lead 3,Lead 4,Lead 5,Lead 6,Lead 7,Lead 8
-129.0,-129.0,-129.0,-129.0,-129.0,-129.0,-129.0,-129.0
5104.0,-1728.0,-2470.0,-1526.0,-3025.0,0.0,0.0,3668.0
5059.0,-1740.0,-2463.0,-1522.0,-3020.0,0.0,0.0,3684.0
5014.0,-1755.0,-2454.0,-1516.0,-3015.0,0.0,0.0,3699.0
4971.0,-1772.0,-2447.0,-1511.0,-3010.0,0.0,0.0,3713.0
4925.0,-1784.0,-2440.0,-1507.0,-3005.0,0.0,0.0,3723.0
4880.0,-1788.0,-2437.0,-1506.0,-3005.0,0.0,0.0,3734.0
4833.0,-1784.0,-2437.0,-1509.0,-3007.0,0.0,0.0,3742.0
4786.0,-1776.0,-2438.0,-1512.0,-3010.0,0.0,0.0,3750.0
4738.0,-1769.0,-2439.0,-1514.0,-3013.0,0.0,0.0,3752.0
4692.0,-1765.0,-2439.0,-1515.0,-3014.0,0.0,0.0,3756.0
4648.0,-1772.0,-2435.0,-1513.0,-3012.0,0.0,0.0,3755.0
4601.0,-1783.0,-2430.0,-1510.0,-3009.0,0.0,0.0,3756.0
4554.0,-1798.0,-2423.0,-1504.0,-3004.0,0.0,0.0,3759.0
4506.0,-1811.0,-2416.0,-1498.0,-2997.0,0.0,0.0,3762.0
4457.0,-1820.0,-2411.0,-1493.0,-2991.0,0.0,0.0,3763.0
4411.0,-1823.0,-2408.0,-1492.0,-2990.0,0.0,-521.0,3761.0
4365.0,-1819.0,-2409.0,-1493.0,-2992.0,0.0,-1333.0,3762.0
4318.0,-1811.0,-2410.0,-1496.0,-2995.0,0.0,-2135.0,3760.0
4273.0,-1802.0,-2413.0,-1499.0,-2998.0,0.0,-2927.0,3756.0
4001.0,-1838.0,-2384.0,-1474.0,-2972.0,0.0,-7474.0,3757.0
3956.0,-1838.0,-2382.0,-1472.0,-2970.0,0.0,-8199.0,3757.0
3913.0,-1832.0,-2383.0,-1473.0,-2972.0,0.0,-8915.0,3755.0
3870.0,-1822.0,-2385.0,-1476.0,-2974.0,0.0,-9622.0,3752.0
3827.0,-1812.0,-2387.0,-1478.0,-2977.0,0.0,-10321.0,3749.0
3785.0,-1806.0,-2387.0,-1479.0,-2977.0,0.0,-11010.0,3743.0
3743.0,-1809.0,-2384.0,-1477.0,-2975.0,0.0,-11691.0,3741.0
3700.0,-1817.0,-2379.0,-1473.0,-2970.0,0.0,-12363.0,3739.0
3659.0,-1828.0,-2373.0,-1467.0,-2965.0,0.0,-13028.0,3740.0
3618.0,-1840.0,-2367.0,-1462.0,-2960.0,0.0,-13683.0,3740.0
3577.0,-1848.0,-2362.0,-1458.0,-2955.0,0.0,-14331.0,3739.0
3535.0,-1847.0,-2359.0,-1456.0,-2953.0,0.0,-14970.0,3739.0
3495.0,-1840.0,-2360.0,-1458.0,-2954.0,0.0,-15602.0,3738.0
3454.0,-1829.0,-2362.0,-1461.0,-2957.0,0.0,-16225.0,3736.0
3414.0,-1818.0,-2364.0,-1464.0,-2959.0,0.0,-16841.0,3732.0
3375.0,-1810.0,-2365.0,-1466.0,-2960.0,0.0,-17449.0,3729.0
3336.0,-1811.0,-2363.0,-1465.0,-2959.0,0.0,-18050.0,3725.0
3297.0,-1818.0,-2358.0,-1461.0,-2954.0,0.0,-18643.0,3722.0
3260.0,-1830.0,-2353.0,-1457.0,-2949.0,0.0,-19228.0,3718.0
3222.0,-1841.0,-2347.0,-1453.0,-2944.0,0.0,-19807.0,3714.0
3185.0,-1850.0,-2344.0,-1450.0,-2940.0,0.0,-20378.0,3712.0
3147.0,-1849.0,-2343.0,-1450.0,-2939.0,0.0,-20942.0,3708.0
3109.0,-1839.0,-2345.0,-1454.0,-2942.0,0.0,-21499.0,3703.0
3072.0,-1828.0,-2348.0,-1459.0,-2946.0,0.0,-22049.0,3697.0
3037.0,-1818.0,-2351.0,-1464.0,-2951.0,0.0,-22592.0,3689.0
3001.0,-1811.0,-2353.0,-1467.0,-2954.0,0.0,-23128.0,3683.0
2966.0,-1811.0,-2351.0,-1467.0,-2952.0,0.0,-23658.0,3676.0
2934.0,-1821.0,-2348.0,-1464.0,-2948.0,0.0,-24181.0,3673.0
2899.0,-1832.0,-2343.0,-1460.0,-2942.0,0.0,-24697.0,3675.0
2864.0,-1841.0,-2337.0,-1456.0,-2936.0,0.0,-25207.0,3678.0
2830.0,-1848.0,-2334.0,-1454.0,-2931.0,0.0,-25711.0,3677.0
2797.0,-1848.0,-2334.0,-1456.0,-2932.0,0.0,-26208.0,3675.0
2765.0,-1840.0,-2337.0,-1461.0,-2935.0,0.0,-26699.0,3672.0
2733.0,-1829.0,-2341.0,-1466.0,-2940.0,0.0,-27184.0,3667.0
2700.0,-1818.0,-2345.0,-1472.0,-2944.0,0.0,-27663.0,3660.0
2523.0,-1854.0,-2337.0,-1471.0,-2933.0,0.0,-30414.0,3633.0
2495.0,-1855.0,-2337.0,-1474.0,-2934.0,0.0,-30852.0,3630.0
2467.0,-1848.0,-2341.0,-1479.0,-2937.0,0.0,-31286.0,3625.0
2439.0,-1839.0,-2346.0,-1486.0,-2942.0,0.0,-31713.0,3623.0
2412.0,-1829.0,-2351.0,-1492.0,-2947.0,0.0,-32136.0,3612.0
2385.0,-1823.0,-2354.0,-1496.0,-2950.0,0.0,-32553.0,3598.0
2358.0,-1824.0,-2353.0,-1497.0,-2950.0,0.0,32571.0,3592.0
2331.0,-1832.0,-2351.0,-1496.0,-2947.0,0.0,32165.0,3590.0
2305.0,-1844.0,-2347.0,-1493.0,-2943.0,0.0,31763.0,3590.0
2278.0,-1854.0,-2343.0,-1489.0,-2937.0,0.0,31366.0,3593.0
2250.0,-1860.0,-2339.0,-1487.0,-2933.0,0.0,30974.0,3594.0
2222.0,-1858.0,-2339.0,-1488.0,-2932.0,0.0,30588.0,3593.0
2196.0,-1850.0,-2342.0,-1491.0,-2935.0,0.0,30206.0,3592.0
2170.0,-1839.0,-2345.0,-1496.0,-2938.0,0.0,29828.0,3588.0
2144.0,-1828.0,-2349.0,-1500.0,-2941.0,0.0,29456.0,3579.0
2119.0,-1821.0,-2350.0,-1503.0,-2943.0,0.0,29088.0,3572.0
2094.0,-1822.0,-2349.0,-1503.0,-2941.0,0.0,28725.0,3567.0
2128.0,-1830.0,-2345.0,-1499.0,-2936.0,0.0,28366.0,3564.0
2128.0,-1841.0,-2340.0,-1494.0,-2930.0,0.0,28012.0,3560.0
2129.0,-1851.0,-2335.0,-1490.0,-2925.0,0.0,27662.0,3558.0
2128.0,-1857.0,-2332.0,-1487.0,-2921.0,0.0,27317.0,3557.0
2129.0,-1857.0,-2331.0,-1488.0,-2921.0,0.0,26975.0,3555.0
2128.0,-1849.0,-2333.0,-1491.0,-2923.0,0.0,26639.0,3549.0
2127.0,-1837.0,-2336.0,-1494.0,-2926.0,0.0,26306.0,3543.0
2127.0,-1826.0,-2339.0,-1498.0,-2929.0,0.0,25977.0,3538.0
2128.0,-1819.0,-2341.0,-1501.0,-2931.0,0.0,25653.0,3530.0
2130.0,-1821.0,-2339.0,-1501.0,-2930.0,0.0,25333.0,3526.0
2130.0,-1828.0,-2335.0,-1497.0,-2927.0,0.0,25016.0,3521.0
2129.0,-1838.0,-2330.0,-1493.0,-2921.0,0.0,24704.0,3517.0
2130.0,-1850.0,-2325.0,-1489.0,-2916.0,0.0,24395.0,3515.0
2130.0,-1857.0,-2321.0,-1484.0,-2911.0,0.0,24091.0,3514.0
2133.0,-1858.0,-2320.0,-1483.0,-2910.0,0.0,23790.0,3511.0
2133.0,-1850.0,-2322.0,-1486.0,-2912.0,0.0,23493.0,3510.0
2132.0,-1838.0,-2324.0,-1489.0,-2914.0,0.0,23199.0,3504.0
2131.0,-1826.0,-2326.0,-1492.0,-2916.0,0.0,22910.0,3497.0
2131.0,-1817.0,-2328.0,-1494.0,-2917.0,0.0,22623.0,3494.0
2131.0,-1817.0,-2326.0,-1493.0,-2916.0,0.0,22341.0,3488.0
2131.0,-1824.0,-2322.0,-1489.0,-2912.0,0.0,22062.0,3483.0
2130.0,-1834.0,-2316.0,-1483.0,-2906.0,0.0,21786.0,3483.0
2130.0,-1843.0,-2310.0,-1478.0,-2899.0,0.0,21514.0,3483.0
2131.0,-1852.0,-2306.0,-1474.0,-2895.0,0.0,21246.0,3480.0
2132.0,-1852.0,-2305.0,-1472.0,-2892.0,0.0,20980.0,3477.0
2132.0,-1844.0,-2306.0,-1473.0,-2893.0,0.0,20718.0,3473.0
2130.0,-1831.0,-2308.0,-1477.0,-2896.0,0.0,20460.0,3465.0
2130.0,-1819.0,-2311.0,-1480.0,-2898.0,0.0,20204.0,3460.0
2129.0,-1810.0,-2312.0,-1481.0,-2899.0,0.0,19952.0,3454.0
2129.0,-1809.0,-2310.0,-1480.0,-2897.0,0.0,19703.0,3450.0
2128.0,-1816.0,-2305.0,-1476.0,-2893.0,0.0,19457.0,3446.0
2129.0,-1827.0,-2300.0,-1472.0,-2888.0,0.0,19214.0,3446.0
2129.0,-1838.0,-2295.0,-1467.0,-2883.0,0.0,18974.0,3444.0
2128.0,-1846.0,-2291.0,-1463.0,-2879.0,0.0,18737.0,3440.0
2129.0,-1845.0,-2290.0,-1462.0,-2877.0,0.0,18503.0,3438.0
2130.0,-1838.0,-2292.0,-1464.0,-2878.0,0.0,18272.0,3438.0
2127.0,-1825.0,-2294.0,-1466.0,-2880.0,0.0,18043.0,3435.0
2126.0,-1812.0,-2296.0,-1469.0,-2882.0,0.0,17818.0,3435.0
2126.0,-1804.0,-2297.0,-1470.0,-2882.0,0.0,17596.0,3434.0
2126.0,-1804.0,-2295.0,-1468.0,-2879.0,0.0,17376.0,3428.0
2126.0,-1811.0,-2290.0,-1464.0,-2873.0,0.0,17159.0,3425.0
2127.0,-1822.0,-2285.0,-1459.0,-2868.0,0.0,16945.0,3424.0
2127.0,-1832.0,-2279.0,-1453.0,-2861.0,0.0,16733.0,3426.0
2127.0,-1839.0,-2275.0,-1449.0,-2856.0,0.0,16524.0,3427.0
2127.0,-1838.0,-2272.0,-1448.0,-2854.0,-634.0,16318.0,3426.0
2127.0,-1830.0,-2274.0,-1449.0,-2855.0,-1448.0,16114.0,3420.0
2128.0,-1819.0,-2276.0,-1452.0,-2858.0,-2253.0,15913.0,3414.0
2127.0,-1807.0,-2279.0,-1456.0,-2861.0,-3049.0,15714.0,3409.0
2127.0,-1798.0,-2280.0,-1458.0,-2862.0,-3832.0,15518.0,3400.0
2127.0,-1798.0,-2278.0,-1457.0,-2859.0,-4602.0,15324.0,3395.0
2127.0,-1803.0,-2274.0,-1452.0,-2854.0,-5359.0,15132.0,3393.0
2128.0,-1814.0,-2268.0,-1446.0,-2848.0,-6106.0,14943.0,3392.0
2128.0,-1824.0,-2263.0,-1442.0,-2842.0,-6843.0,14757.0,3391.0
2127.0,-1831.0,-2258.0,-1438.0,-2837.0,-7574.0,14573.0,3388.0
2129.0,-1831.0,-2257.0,-1437.0,-2835.0,-8299.0,14391.0,3384.0
2131.0,-1825.0,-2259.0,-1439.0,-2837.0,-9016.0,14211.0,3382.0
2131.0,-1813.0,-2261.0,-1442.0,-2840.0,-9727.0,14033.0,3377.0
2128.0,-1799.0,-2264.0,-1445.0,-2843.0,-10429.0,13858.0,3375.0
2128.0,-1792.0,-2265.0,-1446.0,-2843.0,-11118.0,13685.0,3368.0
2128.0,-1793.0,-2263.0,-1444.0,-2840.0,-11794.0,13514.0,3361.0
2128.0,-1800.0,-2260.0,-1442.0,-2836.0,-12464.0,13345.0,3359.0
2129.0,-1810.0,-2255.0,-1437.0,-2831.0,-13123.0,13179.0,3355.0
2129.0,-1820.0,-2249.0,-1431.0,-2824.0,-13772.0,13014.0,3356.0
2128.0,-1827.0,-2245.0,-1427.0,-2818.0,-14414.0,12852.0,3358.0
2128.0,-1826.0,-2245.0,-1427.0,-2817.0,-15053.0,12691.0,3357.0
2126.0,-1816.0,-2246.0,-1429.0,-2818.0,-15686.0,12533.0,3350.0
2126.0,-1805.0,-2248.0,-1432.0,-2820.0,-16312.0,12376.0,3345.0
2125.0,-1792.0,-2251.0,-1435.0,-2823.0,-16932.0,12222.0,3337.0
2124.0,-1784.0,-2252.0,-1437.0,-2825.0,-17542.0,12069.0,3332.0
2126.0,-1784.0,-2250.0,-1436.0,-2823.0,-18141.0,11918.0,3324.0
2126.0,-1790.0,-2246.0,-1432.0,-2819.0,-18731.0,11769.0,3318.0
2126.0,-1799.0,-2241.0,-1427.0,-2813.0,-19311.0,11622.0,3317.0
2126.0,-1809.0,-2236.0,-1423.0,-2807.0,-19884.0,11477.0,3311.0
2126.0,-1817.0,-2232.0,-1419.0,-2803.0,-20452.0,11334.0,3310.0
2125.0,-1815.0,-2231.0,-1419.0,-2802.0,-21016.0,11192.0,3309.0
2124.0,-1807.0,-2232.0,-1421.0,-2803.0,-21575.0,11053.0,3305.0
2124.0,-1794.0,-2235.0,-1424.0,-2806.0,-22128.0,10914.0,3297.0
2123.0,-1783.0,-2237.0,-1427.0,-2808.0,-22673.0,10778.0,3296.0
2122.0,-1775.0,-2239.0,-1429.0,-2809.0,-23212.0,10644.0,3294.0
2122.0,-1775.0,-2237.0,-1428.0,-2807.0,-23740.0,10511.0,3289.0
2122.0,-1781.0,-2233.0,-1424.0,-2802.0,-24258.0,10379.0,3286.0
2121.0,-1791.0,-2228.0,-1419.0,-2796.0,-24769.0,10250.0,3285.0
2120.0,-1800.0,-2223.0,-1414.0,-2790.0,-25273.0,10122.0,3284.0
2119.0,-1806.0,-2219.0,-1411.0,-2786.0,-25774.0,9995.0,3286.0
2117.0,-1803.0,-2218.0,-1409.0,-2783.0,-26269.0,9871.0,3287.0
2115.0,-1793.0,-2220.0,-1411.0,-2784.0,-26763.0,9747.0,3283.0
2114.0,-1781.0,-2222.0,-1415.0,-2786.0,-27252.0,9626.0,3277.0
2113.0,-1769.0,-2226.0,-1420.0,-2790.0,-27736.0,9505.0,3267.0
2112.0,-1759.0,-2228.0,-1423.0,-2793.0,-28212.0,9387.0,3260.0
2113.0,-1761.0,-2227.0,-1422.0,-2792.0,-28679.0,9269.0,3253.0
2113.0,-1767.0,-2223.0,-1419.0,-2788.0,-29137.0,9154.0,3246.0
2112.0,-1778.0,-2218.0,-1414.0,-2782.0,-29589.0,9039.0,3242.0
2112.0,-1788.0,-2214.0,-1410.0,-2777.0,-30034.0,8926.0,3239.0
2110.0,-1795.0,-2209.0,-1406.0,-2773.0,-30475.0,8815.0,3237.0
2108.0,-1792.0,-2208.0,-1405.0,-2772.0,-30913.0,8705.0,3232.0
2107.0,-1784.0,-2210.0,-1407.0,-2773.0,-31347.0,8596.0,3226.0
2106.0,-1773.0,-2213.0,-1410.0,-2775.0,-31778.0,8489.0,3223.0
2105.0,-1759.0,-2215.0,-1413.0,-2778.0,-32204.0,8383.0,3217.0
2104.0,-1751.0,-2217.0,-1415.0,-2779.0,-32623.0,8278.0,3211.0
2105.0,-1752.0,-2215.0,-1415.0,-2777.0,32501.0,8175.0,3206.0
2105.0,-1758.0,-2211.0,-1411.0,-2773.0,32098.0,8073.0,3203.0
2105.0,-1768.0,-2206.0,-1406.0,-2767.0,31701.0,7972.0,3199.0
2104.0,-1778.0,-2202.0,-1401.0,-2763.0,31307.0,7872.0,3195.0
2104.0,-1785.0,-2198.0,-1398.0,-2759.0,30919.0,7774.0,3194.0
2104.0,-1783.0,-2197.0,-1398.0,-2758.0,30533.0,7677.0,3193.0
2103.0,-1776.0,-2198.0,-1400.0,-2758.0,30150.0,7581.0,3193.0
2100.0,-1764.0,-2200.0,-1402.0,-2760.0,29770.0,7486.0,3189.0
2098.0,-1751.0,-2203.0,-1405.0,-2762.0,29395.0,7393.0,3183.0
2097.0,-1742.0,-2204.0,-1407.0,-2762.0,29027.0,7300.0,3178.0
2096.0,-1741.0,-2202.0,-1405.0,-2759.0,28667.0,7209.0,3177.0
2095.0,-1747.0,-2198.0,-1401.0,-2754.0,28313.0,7119.0,3176.0
2095.0,-1757.0,-2192.0,-1395.0,-2748.0,27964.0,7030.0,3175.0
2094.0,-1768.0,-2187.0,-1390.0,-2742.0,27619.0,6942.0,3176.0
2093.0,-1774.0,-2183.0,-1387.0,-2738.0,27277.0,6856.0,3177.0
2093.0,-1773.0,-2182.0,-1386.0,-2736.0,26935.0,6770.0,3174.0
2091.0,-1765.0,-2183.0,-1389.0,-2738.0,26594.0,6686.0,3167.0
2091.0,-1754.0,-2187.0,-1393.0,-2741.0,26257.0,6602.0,3160.0
2090.0,-1741.0,-2189.0,-1397.0,-2745.0,25923.0,6520.0,3152.0
2089.0,-1732.0,-2191.0,-1399.0,-2747.0,25595.0,6438.0,3143.0
2089.0,-1733.0,-2190.0,-1398.0,-2745.0,25275.0,6358.0,3137.0
2089.0,-1740.0,-2186.0,-1395.0,-2742.0,24961.0,6278.0,3130.0
2089.0,-1750.0,-2181.0,-1390.0,-2736.0,24654.0,6200.0,3127.0
2087.0,-1759.0,-2176.0,-1384.0,-2729.0,24351.0,6123.0,3127.0
2084.0,-1765.0,-2171.0,-1380.0,-2724.0,24051.0,6046.0,3126.0
2084.0,-1764.0,-2169.0,-1378.0,-2721.0,23753.0,5971.0,3126.0
2082.0,-1755.0,-2171.0,-1380.0,-2721.0,23455.0,5896.0,3125.0
2083.0,-1744.0,-2174.0,-1383.0,-2724.0,23158.0,5822.0,3120.0
2081.0,-1732.0,-2176.0,-1387.0,-2726.0,22865.0,5750.0,3114.0
2080.0,-1723.0,-2177.0,-1388.0,-2727.0,22576.0,5678.0,3106.0
2081.0,-1724.0,-2175.0,-1387.0,-2726.0,22293.0,5607.0,3098.0
2080.0,-1730.0,-2171.0,-1383.0,-2723.0,22017.0,5537.0,3093.0
2080.0,-1739.0,-2166.0,-1378.0,-2717.0,21745.0,5468.0,3090.0
2081.0,-1750.0,-2161.0,-1374.0,-2711.0,21477.0,5399.0,3089.0
2080.0,-1756.0,-2157.0,-1370.0,-2707.0,21212.0,5332.0,3087.0
2080.0,-1755.0,-2156.0,-1370.0,-2706.0,20948.0,5265.0,3085.0
2081.0,-1748.0,-2157.0,-1371.0,-2706.0,20684.0,5200.0,3081.0
2080.0,-1736.0,-2159.0,-1373.0,-2708.0,20422.0,5135.0,3075.0
2078.0,-1723.0,-2162.0,-1377.0,-2710.0,20164.0,5071.0,3069.0
2075.0,-1742.0,-2142.0,-1359.0,-2688.0,18712.0,4702.0,3036.0
2076.0,-1742.0,-2141.0,-1358.0,-2687.0,18477.0,4644.0,3026.0
2076.0,-1734.0,-2142.0,-1360.0,-2689.0,18243.0,4586.0,3020.0
2077.0,-1724.0,-2145.0,-1364.0,-2692.0,18009.0,4528.0,3014.0
2078.0,-1713.0,-2148.0,-1367.0,-2695.0,17779.0,4472.0,3009.0
2077.0,-1702.0,-2149.0,-1369.0,-2697.0,17554.0,4416.0,3004.0
2077.0,-1701.0,-2148.0,-1368.0,-2695.0,17335.0,4361.0,2999.0
2078.0,-1708.0,-2143.0,-1364.0,-2689.0,17122.0,4306.0,2994.0
2080.0,-1718.0,-2137.0,-1358.0,-2682.0,16915.0,4253.0,2992.0
2081.0,-1729.0,-2131.0,-1351.0,-2674.0,16710.0,4199.0,2992.0
2080.0,-1735.0,-2126.0,-1347.0,-2669.0,16506.0,4147.0,2995.0
2080.0,-1733.0,-2124.0,-1345.0,-2666.0,16301.0,4095.0,2992.0
2080.0,-1725.0,-2125.0,-1346.0,-2666.0,16095.0,4044.0,2989.0
2080.0,-1713.0,-2127.0,-1349.0,-2668.0,15892.0,3994.0,2986.0
2079.0,-1700.0,-2129.0,-1351.0,-2669.0,15690.0,3944.0,2978.0
2077.0,-1689.0,-2130.0,-1353.0,-2671.0,15491.0,3894.0,2970.0
2077.0,-1690.0,-2129.0,-1352.0,-2670.0,15297.0,3846.0,2965.0
2078.0,-1696.0,-2125.0,-1348.0,-2665.0,15109.0,3798.0,2957.0
2081.0,-1708.0,-2120.0,-1344.0,-2660.0,14924.0,3750.0,2952.0
2082.0,-1719.0,-2115.0,-1339.0,-2654.0,14741.0,3703.0,2953.0
2083.0,-1726.0,-2110.0,-1335.0,-2649.0,14560.0,3657.0,2950.0
2083.0,-1725.0,-2108.0,-1333.0,-2646.0,14379.0,3611.0,2950.0
2081.0,-1716.0,-2109.0,-1335.0,-2647.0,14198.0,3566.0,2951.0
2080.0,-1704.0,-2112.0,-1338.0,-2649.0,14017.0,3522.0,2944.0
2080.0,-1693.0,-2114.0,-1341.0,-2652.0,13838.0,3478.0,2937.0
2080.0,-1683.0,-2116.0,-1343.0,-2653.0,13663.0,3434.0,2932.0
2080.0,-1683.0,-2113.0,-1342.0,-2651.0,13493.0,3392.0,2925.0
2079.0,-1689.0,-2109.0,-1338.0,-2646.0,13327.0,3349.0,2920.0
2079.0,-1698.0,-2104.0,-1333.0,-2641.0,13165.0,3307.0,2920.0
2080.0,-1708.0,-2099.0,-1328.0,-2635.0,13004.0,3266.0,2921.0
2080.0,-1716.0,-2095.0,-1324.0,-2631.0,12844.0,3225.0,2920.0
2080.0,-1715.0,-2094.0,-1323.0,-2630.0,12683.0,3185.0,2918.0
2079.0,-1707.0,-2095.0,-1326.0,-2632.0,12522.0,3145.0,2914.0
2078.0,-1694.0,-2098.0,-1329.0,-2635.0,12360.0,3106.0,2907.0
2078.0,-1682.0,-2101.0,-1333.0,-2639.0,12199.0,3067.0,2901.0
2078.0,-1674.0,-2103.0,-1335.0,-2640.0,12044.0,3029.0,2896.0
2077.0,-1673.0,-2101.0,-1333.0,-2637.0,11896.0,2991.0,2889.0
2077.0,-1680.0,-2096.0,-1328.0,-2631.0,11750.0,2954.0,2884.0
2077.0,-1690.0,-2091.0,-1323.0,-2625.0,11609.0,2917.0,2882.0
2076.0,-1700.0,-2085.0,-1318.0,-2618.0,11470.0,2880.0,2884.0
2075.0,-1705.0,-2081.0,-1313.0,-2613.0,11330.0,2844.0,2888.0
2076.0,-1705.0,-2079.0,-1311.0,-2611.0,11189.0,2809.0,2888.0
2074.0,-1696.0,-2081.0,-1313.0,-2613.0,11047.0,2774.0,2884.0
2072.0,-1683.0,-2083.0,-1317.0,-2615.0,10906.0,2739.0,2879.0
2071.0,-1671.0,-2086.0,-1320.0,-2617.0,10767.0,2705.0,2875.0
2070.0,-1662.0,-2088.0,-1322.0,-2619.0,10629.0,2671.0,2869.0
2072.0,-1663.0,-2087.0,-1321.0,-2617.0,10496.0,2638.0,2861.0
2071.0,-1670.0,-2084.0,-1317.0,-2613.0,10366.0,2605.0,2859.0
2071.0,-1680.0,-2079.0,-1313.0,-2608.0,10240.0,2572.0,2859.0
2070.0,-1690.0,-2073.0,-1308.0,-2602.0,10116.0,2540.0,2854.0
2069.0,-1696.0,-2069.0,-1304.0,-2598.0,9992.0,2508.0,2852.0
2070.0,-1696.0,-2069.0,-1303.0,-2597.0,9867.0,2477.0,2845.0
2068.0,-1687.0,-2070.0,-1306.0,-2599.0,9740.0,2446.0,2843.0
2067.0,-1675.0,-2073.0,-1309.0,-2601.0,9614.0,2416.0,2840.0
2066.0,-1663.0,-2075.0,-1313.0,-2604.0,9490.0,2385.0,2837.0
2066.0,-1655.0,-2077.0,-1314.0,-2605.0,9369.0,2356.0,2833.0
2065.0,-1656.0,-2075.0,-1313.0,-2603.0,9252.0,2326.0,2832.0
2064.0,-1662.0,-2071.0,-1310.0,-2599.0,9140.0,2297.0,2828.0
2063.0,-1672.0,-2066.0,-1305.0,-2592.0,9031.0,2268.0,2824.0
2062.0,-1682.0,-2060.0,-1300.0,-2587.0,8922.0,2240.0,2826.0
2061.0,-1688.0,-2057.0,-1296.0,-2582.0,8813.0,2212.0,2826.0
2061.0,-1688.0,-2055.0,-1295.0,-2581.0,8703.0,2184.0,2822.0
2060.0,-1679.0,-2056.0,-1296.0,-2582.0,8592.0,2157.0,2822.0
2058.0,-1666.0,-2059.0,-1299.0,-2584.0,8481.0,2130.0,2818.0
2058.0,-1654.0,-2062.0,-1302.0,-2586.0,8371.0,2104.0,2811.0
2058.0,-1646.0,-2064.0,-1305.0,-2588.0,8263.0,2077.0,2805.0
2057.0,-1646.0,-2062.0,-1303.0,-2586.0,8160.0,2550.0,2801.0
2056.0,-1652.0,-2057.0,-1300.0,-2581.0,8062.0,2549.0,2799.0
2056.0,-1662.0,-2052.0,-1294.0,-2575.0,7967.0,2547.0,2798.0
2057.0,-1673.0,-2047.0,-1290.0,-2569.0,7872.0,2546.0,2798.0
2056.0,-1680.0,-2042.0,-1286.0,-2565.0,7777.0,2544.0,2798.0
2057.0,-1681.0,-2041.0,-1285.0,-2563.0,7681.0,2542.0,2795.0
2057.0,-1673.0,-2043.0,-1286.0,-2564.0,7582.0,2541.0,2789.0
2057.0,-1662.0,-2045.0,-1289.0,-2566.0,7484.0,2539.0,2779.0
2056.0,-1649.0,-2048.0,-1293.0,-2569.0,7386.0,2538.0,2774.0
2055.0,-1640.0,-2049.0,-1294.0,-2570.0,7290.0,2536.0,2770.0
2055.0,-1639.0,-2047.0,-1293.0,-2569.0,7199.0,2534.0,2765.0
2054.0,-1644.0,-2044.0,-1289.0,-2565.0,7111.0,2533.0,2763.0
2053.0,-1653.0,-2038.0,-1284.0,-2559.0,7026.0,2531.0,2761.0
2053.0,-1663.0,-2033.0,-1279.0,-2554.0,6941.0,2530.0,2761.0
2051.0,-1670.0,-2029.0,-1275.0,-2550.0,6857.0,2528.0,2763.0
2052.0,-1669.0,-2027.0,-1274.0,-2548.0,6772.0,2526.0,2760.0
2051.0,-1662.0,-2029.0,-1276.0,-2549.0,6686.0,2525.0,2757.0
2051.0,-1651.0,-2032.0,-1280.0,-2552.0,6598.0,2523.0,2754.0
2051.0,-1639.0,-2034.0,-1283.0,-2555.0,6511.0,2522.0,2752.0
2050.0,-1629.0,-2036.0,-1285.0,-2556.0,6427.0,2520.0,2747.0
2049.0,-1629.0,-2034.0,-1283.0,-2554.0,6348.0,2519.0,2744.0
2049.0,-1636.0,-2029.0,-1278.0,-2548.0,6274.0,2517.0,2743.0
2049.0,-1646.0,-2023.0,-1271.0,-2540.0,6202.0,2515.0,2743.0
2050.0,-1656.0,-2016.0,-1265.0,-2533.0,6131.0,2514.0,2743.0
2051.0,-1663.0,-2012.0,-1261.0,-2529.0,6057.0,2512.0,2746.0
2051.0,-1663.0,-2011.0,-1260.0,-2528.0,5980.0,2511.0,2747.0
2049.0,-1655.0,-2012.0,-1261.0,-2529.0,5903.0,2509.0,2746.0
2049.0,-1643.0,-2014.0,-1264.0,-2531.0,5826.0,2507.0,2743.0
2048.0,-1630.0,-2016.0,-1267.0,-2533.0,5750.0,2506.0,2738.0
2049.0,-1620.0,-2017.0,-1268.0,-2534.0,5675.0,2504.0,2732.0
2049.0,-1620.0,-2015.0,-1266.0,-2531.0,5605.0,2503.0,2728.0
2047.0,-1625.0,-2011.0,-1262.0,-2527.0,5538.0,2501.0,2727.0
2046.0,-1634.0,-2006.0,-1257.0,-2522.0,5473.0,2500.0,2725.0
2044.0,-1644.0,-2000.0,-1251.0,-2516.0,5408.0,2498.0,2723.0
2045.0,-1652.0,-1996.0,-1248.0,-2511.0,5343.0,2496.0,2724.0
2045.0,-1651.0,-1994.0,-1248.0,-2510.0,5276.0,2495.0,2725.0
2043.0,-1641.0,-1995.0,-1249.0,-2510.0,5208.0,2493.0,2721.0
2043.0,-1631.0,-1997.0,-1251.0,-2513.0,5139.0,2492.0,2716.0
2048.0,-1623.0,-2001.0,-1254.0,-2516.0,5070.0,2490.0,2709.0
2051.0,-1615.0,-2003.0,-1256.0,-2517.0,5005.0,2489.0,2705.0
2053.0,-1615.0,-2002.0,-1254.0,-2514.0,4943.0,2487.0,2703.0
2057.0,-1623.0,-1997.0,-1249.0,-2509.0,4885.0,2486.0,2702.0
2061.0,-1634.0,-1992.0,-1243.0,-2502.0,4830.0,2484.0,2701.0
2064.0,-1643.0,-1986.0,-1237.0,-2495.0,4775.0,2482.0,2703.0
2068.0,-1651.0,-1984.0,-1234.0,-2490.0,4719.0,2481.0,2706.0
2075.0,-1654.0,-1984.0,-1233.0,-2488.0,4661.0,2479.0,2708.0
2078.0,-1648.0,-1987.0,-1237.0,-2490.0,4599.0,2478.0,2710.0
2078.0,-1639.0,-1993.0,-1242.0,-2495.0,4536.0,2476.0,2709.0
2076.0,-1628.0,-1998.0,-1249.0,-2501.0,4472.0,2475.0,2705.0
2071.0,-1618.0,-2001.0,-1254.0,-2504.0,4412.0,2473.0,2703.0
2069.0,-1619.0,-2001.0,-1255.0,-2504.0,4356.0,2471.0,2696.0
2067.0,-1624.0,-1997.0,-1252.0,-2499.0,4305.0,2470.0,2696.0
2066.0,-1634.0,-1992.0,-1247.0,-2494.0,4255.0,2468.0,2697.0
2065.0,-1645.0,-1987.0,-1243.0,-2489.0,4205.0,2467.0,2696.0
2066.0,-1653.0,-1984.0,-1241.0,-2486.0,4155.0,2465.0,2696.0
2065.0,-1652.0,-1983.0,-1240.0,-2484.0,4103.0,2464.0,2700.0
2063.0,-1643.0,-1984.0,-1242.0,-2485.0,4050.0,2462.0,2701.0
2060.0,-1629.0,-1986.0,-1245.0,-2487.0,3997.0,2461.0,2702.0
2059.0,-1616.0,-1989.0,-1248.0,-2489.0,3943.0,2459.0,2702.0
2055.0,-1605.0,-1991.0,-1250.0,-2491.0,3891.0,2458.0,2700.0
2053.0,-1604.0,-1989.0,-1249.0,-2490.0,3842.0,2456.0,2699.0
2051.0,-1609.0,-1985.0,-1246.0,-2486.0,3795.0,2454.0,2698.0
2049.0,-1618.0,-1979.0,-1241.0,-2480.0,3752.0,2453.0,2699.0
2045.0,-1626.0,-1973.0,-1235.0,-2475.0,3709.0,2451.0,2703.0
2040.0,-1631.0,-1968.0,-1231.0,-2471.0,3665.0,2450.0,2706.0
2040.0,-1632.0,-1968.0,-1231.0,-2471.0,3617.0,2448.0,2704.0
2039.0,-1626.0,-1971.0,-1235.0,-2474.0,3567.0,2447.0,2700.0
2036.0,-1614.0,-1975.0,-1240.0,-2477.0,3519.0,2445.0,2695.0
2032.0,-1600.0,-1977.0,-1243.0,-2479.0,3471.0,2444.0,2689.0
2029.0,-1590.0,-1979.0,-1245.0,-2481.0,3424.0,2442.0,2687.0
2027.0,-1588.0,-1977.0,-1244.0,-2480.0,3382.0,2441.0,2686.0
2026.0,-1593.0,-1973.0,-1240.0,-2476.0,3342.0,2439.0,2688.0
2024.0,-1602.0,-1968.0,-1236.0,-2471.0,3303.0,2438.0,2688.0
2024.0,-1613.0,-1963.0,-1231.0,-2466.0,3265.0,2436.0,2691.0
2024.0,-1622.0,-1959.0,-1227.0,-2462.0,3226.0,2434.0,2693.0
2024.0,-1622.0,-1957.0,-1226.0,-2460.0,3186.0,2433.0,2692.0
2024.0,-1614.0,-1959.0,-1228.0,-2461.0,3144.0,2431.0,2692.0
2024.0,-1605.0,-1962.0,-1231.0,-2464.0,3101.0,2430.0,2693.0
2024.0,-1594.0,-1964.0,-1235.0,-2466.0,3059.0,2428.0,2692.0
2022.0,-1584.0,-1966.0,-1237.0,-2467.0,3018.0,2427.0,2692.0
2021.0,-1582.0,-1964.0,-1235.0,-2464.0,2982.0,2425.0,2695.0
2020.0,-1588.0,-1960.0,-1231.0,-2460.0,2948.0,2424.0,2696.0
2019.0,-1597.0,-1955.0,-1225.0,-2453.0,2917.0,2422.0,2700.0
2020.0,-1608.0,-1950.0,-1221.0,-2448.0,2884.0,2421.0,2703.0
2019.0,-1615.0,-1946.0,-1218.0,-2444.0,2850.0,2419.0,2707.0
2017.0,-1613.0,-1944.0,-1216.0,-2442.0,2816.0,2418.0,2708.0
2013.0,-1602.0,-1945.0,-1218.0,-2443.0,2779.0,2416.0,2707.0
2009.0,-1589.0,-1947.0,-1220.0,-2444.0,2741.0,2415.0,2706.0
2007.0,-1578.0,-1951.0,-1224.0,-2448.0,2702.0,2413.0,2705.0
2006.0,-1569.0,-1954.0,-1227.0,-2450.0,2664.0,2412.0,2703.0
2007.0,-1569.0,-1952.0,-1226.0,-2449.0,2630.0,2410.0,2701.0
2006.0,-1576.0,-1949.0,-1223.0,-2445.0,2599.0,2409.0,2701.0
2006.0,-1585.0,-1943.0,-1217.0,-2440.0,2570.0,2407.0,2701.0
2006.0,-1597.0,-1939.0,-1213.0,-2434.0,2541.0,2406.0,2700.0
2006.0,-1605.0,-1935.0,-1209.0,-2430.0,2512.0,2404.0,2707.0
2004.0,-1603.0,-1933.0,-1208.0,-2428.0,2481.0,2403.0,2715.0
1998.0,-1588.0,-1932.0,-1207.0,-2427.0,2449.0,2401.0,2721.0
1993.0,-1570.0,-1931.0,-1208.0,-2427.0,2417.0,2400.0,2724.0
1986.0,-1551.0,-1927.0,-1203.0,-2424.0,2388.0,2398.0,2727.0
1976.0,-1532.0,-1920.0,-1193.0,-2416.0,2364.0,2397.0,2733.0
1967.0,-1520.0,-1908.0,-1179.0,-2403.0,2344.0,2395.0,2741.0
1956.0,-1516.0,-1894.0,-1164.0,-2390.0,2325.0,2394.0,2748.0
1952.0,-1524.0,-1884.0,-1152.0,-2378.0,2305.0,2392.0,2754.0
1962.0,-1541.0,-1880.0,-1146.0,-2371.0,2283.0,2391.0,2759.0
1976.0,-1562.0,-1878.0,-1142.0,-2368.0,2256.0,2389.0,2764.0
1989.0,-1581.0,-1879.0,-1140.0,-2368.0,2226.0,2388.0,2765.0
2007.0,-1596.0,-1882.0,-1138.0,-2368.0,2195.0,2386.0,2760.0
2032.0,-1610.0,-1889.0,-1138.0,-2371.0,2162.0,2385.0,2760.0
2067.0,-1629.0,-1899.0,-1141.0,-2375.0,2130.0,2383.0,2761.0
2113.0,-1657.0,-1910.0,-1141.0,-2376.0,2102.0,2382.0,2763.0
2176.0,-1698.0,-1918.0,-1135.0,-2369.0,2083.0,2380.0,2768.0
2237.0,-1740.0,-1926.0,-1135.0,-2362.0,2069.0,2379.0,2783.0
2291.0,-1782.0,-1935.0,-1140.0,-2359.0,2071.0,2377.0,2795.0
2327.0,-1825.0,-1949.0,-1156.0,-2372.0,2057.0,2376.0,2797.0
2345.0,-1856.0,-1969.0,-1182.0,-2394.0,2032.0,2374.0,2790.0
2346.0,-1861.0,-1995.0,-1223.0,-2424.0,2004.0,2373.0,2782.0
2329.0,-1843.0,-2025.0,-1274.0,-2458.0,1975.0,2371.0,2777.0
2293.0,-1807.0,-2046.0,-1318.0,-2487.0,1950.0,2370.0,2774.0
2245.0,-1760.0,-2056.0,-1349.0,-2509.0,1929.0,2368.0,2768.0
2184.0,-1707.0,-2058.0,-1374.0,-2527.0,1911.0,2367.0,2763.0
2146.0,-1681.0,-2062.0,-1397.0,-2543.0,1896.0,2365.0,2754.0
2123.0,-1675.0,-2064.0,-1410.0,-2553.0,1886.0,2364.0,2738.0
2095.0,-1675.0,-2057.0,-1406.0,-2552.0,1883.0,2362.0,2717.0
2081.0,-1683.0,-2049.0,-1393.0,-2546.0,1884.0,2361.0,2697.0
2076.0,-1688.0,-2041.0,-1378.0,-2535.0,1889.0,2359.0,2677.0
2072.0,-1682.0,-2035.0,-1367.0,-2526.0,1894.0,2358.0,2643.0
2058.0,-1664.0,-2030.0,-1357.0,-2518.0,1897.0,2356.0,2586.0
2044.0,-1643.0,-2022.0,-1344.0,-2510.0,1900.0,2355.0,2502.0
2020.0,-1616.0,-2010.0,-1328.0,-2498.0,1907.0,2353.0,2418.0
1999.0,-1593.0,-1997.0,-1311.0,-2485.0,1914.0,2352.0,2348.0
1990.0,-1585.0,-1984.0,-1295.0,-2472.0,1922.0,2350.0,2288.0
1985.0,-1586.0,-1971.0,-1278.0,-2458.0,1932.0,2349.0,2252.0
1987.0,-1594.0,-1958.0,-1259.0,-2442.0,1943.0,2347.0,2227.0
1990.0,-1603.0,-1943.0,-1239.0,-2425.0,1955.0,2346.0,2203.0
1988.0,-1608.0,-1929.0,-1220.0,-2410.0,1964.0,2344.0,2193.0
1988.0,-1605.0,-1918.0,-1207.0,-2398.0,1972.0,2343.0,2190.0
1984.0,-1593.0,-1911.0,-1197.0,-2391.0,1975.0,2341.0,2183.0
1979.0,-1576.0,-1907.0,-1192.0,-2387.0,1974.0,2340.0,2170.0
1976.0,-1562.0,-1906.0,-1191.0,-2388.0,1971.0,2338.0,2151.0
1973.0,-1550.0,-1904.0,-1190.0,-2387.0,1968.0,2337.0,2117.0
1974.0,-1545.0,-1899.0,-1186.0,-2381.0,1970.0,2336.0,2072.0
1973.0,-1547.0,-1893.0,-1179.0,-2374.0,1975.0,2334.0,2033.0
1972.0,-1554.0,-1885.0,-1172.0,-2366.0,1981.0,2333.0,2011.0
1972.0,-1562.0,-1879.0,-1166.0,-2359.0,1986.0,2331.0,1994.0
1970.0,-1566.0,-1874.0,-1160.0,-2352.0,1990.0,2330.0,1970.0
1968.0,-1563.0,-1871.0,-1158.0,-2349.0,1992.0,2328.0,1952.0
1967.0,-1554.0,-1872.0,-1159.0,-2349.0,1989.0,2327.0,1982.0
1967.0,-1544.0,-1874.0,-1162.0,-2351.0,1983.0,2325.0,1995.0
1967.0,-1532.0,-1877.0,-1165.0,-2354.0,1981.0,2324.0,1990.0
1964.0,-1521.0,-1878.0,-1166.0,-2355.0,1984.0,2322.0,1992.0
1963.0,-1520.0,-1876.0,-1164.0,-2353.0,1986.0,2321.0,1993.0
1964.0,-1528.0,-1872.0,-1161.0,-2348.0,1989.0,2319.0,1992.0
1966.0,-1538.0,-1867.0,-1155.0,-2342.0,1994.0,2318.0,1983.0
1966.0,-1547.0,-1861.0,-1149.0,-2336.0,2000.0,2317.0,1972.0
1966.0,-1555.0,-1857.0,-1145.0,-2331.0,2003.0,2315.0,1963.0
1965.0,-1555.0,-1855.0,-1143.0,-2329.0,2003.0,2314.0,1951.0
1962.0,-1545.0,-1856.0,-1145.0,-2330.0,2000.0,2312.0,1938.0
1962.0,-1533.0,-1859.0,-1147.0,-2332.0,1997.0,2311.0,1922.0
1961.0,-1520.0,-1861.0,-1150.0,-2335.0,1993.0,2309.0,1900.0
1961.0,-1511.0,-1863.0,-1152.0,-2336.0,1989.0,2308.0,1881.0
1960.0,-1509.0,-1860.0,-1150.0,-2333.0,1989.0,2306.0,1870.0
1960.0,-1516.0,-1855.0,-1146.0,-2329.0,1993.0,2305.0,1861.0
1962.0,-1527.0,-1850.0,-1141.0,-2323.0,1996.0,2303.0,1853.0
1964.0,-1539.0,-1845.0,-1136.0,-2318.0,1999.0,2302.0,1848.0
1964.0,-1546.0,-1841.0,-1132.0,-2314.0,2000.0,2301.0,1838.0
1963.0,-1546.0,-1840.0,-1130.0,-2312.0,1999.0,2299.0,1823.0
1963.0,-1538.0,-1842.0,-1133.0,-2314.0,1994.0,2298.0,1815.0
1964.0,-1528.0,-1845.0,-1136.0,-2317.0,1988.0,2296.0,1811.0
1963.0,-1516.0,-1848.0,-1140.0,-2320.0,1982.0,2295.0,1803.0
1962.0,-1508.0,-1851.0,-1143.0,-2323.0,1975.0,2293.0,1798.0
1959.0,-1507.0,-1849.0,-1141.0,-2321.0,1974.0,2292.0,1797.0
1958.0,-1513.0,-1844.0,-1137.0,-2316.0,1977.0,2290.0,1796.0
1957.0,-1522.0,-1838.0,-1132.0,-2309.0,1982.0,2289.0,1800.0
1955.0,-1532.0,-1833.0,-1127.0,-2303.0,1985.0,2288.0,1805.0
1953.0,-1539.0,-1830.0,-1123.0,-2299.0,1985.0,2286.0,1810.0
1953.0,-1540.0,-1828.0,-1121.0,-2297.0,1985.0,2285.0,1808.0
1951.0,-1533.0,-1830.0,-1124.0,-2298.0,1982.0,2283.0,1801.0
1948.0,-1520.0,-1833.0,-1127.0,-2300.0,1976.0,2282.0,1788.0
1945.0,-1507.0,-1836.0,-1131.0,-2303.0,1970.0,2280.0,1772.0
1945.0,-1499.0,-1838.0,-1133.0,-2306.0,1964.0,2279.0,1756.0
1945.0,-1500.0,-1837.0,-1132.0,-2304.0,1961.0,2278.0,1740.0
1944.0,-1507.0,-1833.0,-1128.0,-2300.0,1962.0,2276.0,1719.0
1942.0,-1516.0,-1828.0,-1122.0,-2294.0,1965.0,2275.0,1701.0
1942.0,-1527.0,-1823.0,-1117.0,-2288.0,1969.0,2273.0,1687.0
1941.0,-1534.0,-1819.0,-1112.0,-2283.0,1973.0,2272.0,1675.0
1939.0,-1532.0,-1816.0,-1110.0,-2280.0,1973.0,2270.0,1668.0
1940.0,-1525.0,-1817.0,-1111.0,-2281.0,1970.0,2269.0,1655.0
1939.0,-1514.0,-1819.0,-1114.0,-2282.0,1965.0,2268.0,1645.0
1938.0,-1501.0,-1821.0,-1117.0,-2285.0,1959.0,2266.0,1636.0
1936.0,-1490.0,-1821.0,-1118.0,-2286.0,1955.0,2265.0,1624.0
1937.0,-1491.0,-1819.0,-1116.0,-2284.0,1953.0,2263.0,1611.0
1937.0,-1497.0,-1816.0,-1113.0,-2281.0,1954.0,2262.0,1598.0
1937.0,-1506.0,-1811.0,-1107.0,-2275.0,1956.0,2260.0,1592.0
1937.0,-1517.0,-1806.0,-1103.0,-2270.0,1958.0,2259.0,1588.0
1938.0,-1525.0,-1802.0,-1099.0,-2265.0,1960.0,2258.0,1580.0
1938.0,-1525.0,-1801.0,-1097.0,-2263.0,1960.0,2256.0,1573.0
1938.0,-1517.0,-1802.0,-1098.0,-2263.0,1956.0,2255.0,1565.0
1938.0,-1505.0,-1804.0,-1100.0,-2265.0,1951.0,2253.0,1556.0
1936.0,-1491.0,-1806.0,-1104.0,-2268.0,1946.0,2252.0,1554.0
1935.0,-1481.0,-1807.0,-1105.0,-2268.0,1942.0,2251.0,1550.0
1935.0,-1481.0,-1805.0,-1102.0,-2266.0,1941.0,2249.0,1548.0
1934.0,-1487.0,-1800.0,-1098.0,-2262.0,1942.0,2248.0,1551.0
1934.0,-1497.0,-1796.0,-1093.0,-2256.0,1945.0,2246.0,1554.0
1934.0,-1507.0,-1791.0,-1086.0,-2249.0,1949.0,2245.0,1557.0
1935.0,-1514.0,-1786.0,-1082.0,-2245.0,1951.0,2243.0,1560.0
1933.0,-1513.0,-1784.0,-1080.0,-2242.0,1950.0,2242.0,1566.0
1933.0,-1507.0,-1786.0,-1081.0,-2243.0,1946.0,2241.0,1568.0
1932.0,-1497.0,-1788.0,-1084.0,-2245.0,1941.0,2239.0,1569.0
1931.0,-1484.0,-1790.0,-1086.0,-2247.0,1936.0,2238.0,1565.0
1932.0,-1476.0,-1791.0,-1087.0,-2248.0,1931.0,2236.0,1566.0
1932.0,-1477.0,-1790.0,-1086.0,-2247.0,1930.0,2235.0,1569.0
1930.0,-1481.0,-1786.0,-1081.0,-2241.0,1932.0,2234.0,1570.0
1929.0,-1489.0,-1780.0,-1075.0,-2235.0,1936.0,2232.0,1576.0
1927.0,-1498.0,-1774.0,-1069.0,-2228.0,1940.0,2231.0,1582.0
1929.0,-1507.0,-1770.0,-1064.0,-2223.0,1943.0,2229.0,1585.0
1931.0,-1509.0,-1769.0,-1062.0,-2220.0,1942.0,2228.0,1585.0
1928.0,-1499.0,-1769.0,-1062.0,-2221.0,1937.0,2227.0,1577.0
1927.0,-1487.0,-1771.0,-1064.0,-2223.0,1931.0,2225.0,1560.0
1926.0,-1476.0,-1773.0,-1066.0,-2226.0,1926.0,2224.0,1492.0
1927.0,-1467.0,-1774.0,-1067.0,-2228.0,1921.0,2222.0,1361.0
1927.0,-1469.0,-1773.0,-1065.0,-2226.0,1920.0,2221.0,1265.0
1927.0,-1476.0,-1769.0,-1060.0,-2221.0,1922.0,2220.0,1190.0
1926.0,-1484.0,-1762.0,-1053.0,-2213.0,1927.0,2218.0,1133.0
1926.0,-1495.0,-1757.0,-1047.0,-2207.0,1930.0,2217.0,1084.0
1924.0,-1501.0,-1753.0,-1042.0,-2202.0,1932.0,2215.0,1041.0
1922.0,-1499.0,-1751.0,-1040.0,-2199.0,1932.0,2214.0,1000.0
1921.0,-1491.0,-1752.0,-1040.0,-2199.0,1930.0,2213.0,964.0
1922.0,-1482.0,-1754.0,-1042.0,-2201.0,1926.0,2211.0,930.0
1921.0,-1470.0,-1756.0,-1045.0,-2203.0,1921.0,2210.0,898.0
1919.0,-1460.0,-1757.0,-1047.0,-2204.0,1916.0,2208.0,870.0
1918.0,-1458.0,-1755.0,-1044.0,-2202.0,1917.0,2207.0,844.0
1918.0,-1463.0,-1750.0,-1040.0,-2197.0,1919.0,2206.0,829.0
1916.0,-1472.0,-1745.0,-1035.0,-2192.0,1921.0,2204.0,817.0
1914.0,-1481.0,-1739.0,-1029.0,-2186.0,1924.0,2203.0,809.0
1913.0,-1486.0,-1735.0,-1025.0,-2181.0,1927.0,2202.0,803.0
1912.0,-1485.0,-1734.0,-1025.0,-2180.0,1925.0,2200.0,793.0
1908.0,-1476.0,-1736.0,-1027.0,-2181.0,1920.0,2199.0,783.0
1904.0,-1463.0,-1738.0,-1030.0,-2184.0,1914.0,2197.0,771.0
1903.0,-1450.0,-1741.0,-1033.0,-2187.0,1909.0,2196.0,757.0
1901.0,-1441.0,-1743.0,-1035.0,-2189.0,1904.0,2195.0,745.0
1899.0,-1440.0,-1742.0,-1035.0,-2189.0,1901.0,2193.0,734.0
1899.0,-1448.0,-1739.0,-1032.0,-2186.0,1902.0,2192.0,725.0
1896.0,-1456.0,-1734.0,-1028.0,-2181.0,1905.0,2190.0,718.0
1895.0,-1467.0,-1729.0,-1023.0,-2175.0,1908.0,2189.0,714.0
1893.0,-1475.0,-1726.0,-1021.0,-2172.0,1908.0,2188.0,709.0
1889.0,-1473.0,-1726.0,-1022.0,-2172.0,1905.0,2186.0,700.0
1889.0,-1466.0,-1728.0,-1025.0,-2174.0,1900.0,2185.0,693.0
1887.0,-1454.0,-1731.0,-1029.0,-2177.0,1895.0,2184.0,684.0
1884.0,-1440.0,-1734.0,-1034.0,-2180.0,1889.0,2182.0,677.0
1881.0,-1429.0,-1736.0,-1037.0,-2182.0,1885.0,2181.0,671.0
1879.0,-1428.0,-1735.0,-1037.0,-2181.0,1885.0,2180.0,667.0
1878.0,-1434.0,-1731.0,-1034.0,-2178.0,1886.0,2178.0,667.0
1877.0,-1445.0,-1727.0,-1031.0,-2173.0,1889.0,2177.0,668.0
1876.0,-1455.0,-1723.0,-1027.0,-2168.0,1892.0,2175.0,669.0
1875.0,-1464.0,-1721.0,-1026.0,-2165.0,1892.0,2174.0,672.0
1874.0,-1464.0,-1722.0,-1028.0,-2166.0,1889.0,2173.0,674.0
1874.0,-1457.0,-1725.0,-1033.0,-2169.0,1884.0,2171.0,671.0
1875.0,-1447.0,-1730.0,-1039.0,-2174.0,1877.0,2170.0,666.0
1875.0,-1437.0,-1735.0,-1046.0,-2179.0,1870.0,2169.0,662.0
1874.0,-1428.0,-1739.0,-1051.0,-2182.0,1865.0,2167.0,660.0
1875.0,-1429.0,-1739.0,-1052.0,-2182.0,1863.0,2166.0,659.0
1875.0,-1437.0,-1737.0,-1052.0,-2180.0,1862.0,2164.0,661.0
1874.0,-1447.0,-1733.0,-1050.0,-2177.0,1863.0,2163.0,667.0
1873.0,-1458.0,-1730.0,-1048.0,-2174.0,1865.0,2162.0,671.0
1875.0,-1468.0,-1728.0,-1046.0,-2170.0,1865.0,2160.0,676.0
1875.0,-1469.0,-1728.0,-1047.0,-2171.0,1863.0,2159.0,682.0
1873.0,-1461.0,-1732.0,-1051.0,-2174.0,1857.0,2158.0,682.0
1872.0,-1451.0,-1737.0,-1057.0,-2178.0,1851.0,2156.0,682.0
1869.0,-1439.0,-1741.0,-1062.0,-2182.0,1845.0,2155.0,682.0
1868.0,-1429.0,-1745.0,-1067.0,-2185.0,1839.0,2154.0,683.0
1868.0,-1429.0,-1745.0,-1068.0,-2184.0,1838.0,2152.0,682.0
1868.0,-1436.0,-1743.0,-1067.0,-2181.0,1841.0,2151.0,686.0
1868.0,-1446.0,-1739.0,-1063.0,-2176.0,1844.0,2150.0,690.0
1866.0,-1456.0,-1734.0,-1060.0,-2171.0,1847.0,2148.0,698.0
1866.0,-1465.0,-1731.0,-1057.0,-2167.0,1848.0,2147.0,707.0
1864.0,-1465.0,-1730.0,-1057.0,-2166.0,1848.0,2146.0,716.0
1861.0,-1456.0,-1732.0,-1060.0,-2167.0,1844.0,2144.0,723.0
1859.0,-1444.0,-1735.0,-1065.0,-2170.0,1838.0,2143.0,730.0
1857.0,-1432.0,-1739.0,-1069.0,-2174.0,1831.0,2141.0,734.0
1855.0,-1422.0,-1742.0,-1073.0,-2177.0,1826.0,2140.0,742.0
1853.0,-1421.0,-1742.0,-1073.0,-2176.0,1824.0,2139.0,747.0
1853.0,-1429.0,-1739.0,-1071.0,-2174.0,1824.0,2137.0,752.0
1855.0,-1441.0,-1736.0,-1067.0,-2170.0,1826.0,2136.0,760.0
1856.0,-1454.0,-1732.0,-1063.0,-2165.0,1828.0,2135.0,767.0
1854.0,-1461.0,-1728.0,-1061.0,-2161.0,1830.0,2133.0,777.0
1849.0,-1457.0,-1726.0,-1059.0,-2159.0,1829.0,2132.0,786.0
1847.0,-1450.0,-1728.0,-1061.0,-2161.0,1825.0,2131.0,792.0
1848.0,-1441.0,-1731.0,-1065.0,-2165.0,1818.0,2129.0,794.0
1848.0,-1429.0,-1735.0,-1071.0,-2170.0,1810.0,2128.0,796.0
1845.0,-1419.0,-1737.0,-1073.0,-2172.0,1805.0,2127.0,800.0
1845.0,-1418.0,-1737.0,-1074.0,-2171.0,1802.0,2125.0,805.0
1845.0,-1426.0,-1734.0,-1071.0,-2168.0,1802.0,2124.0,810.0
1845.0,-1436.0,-1729.0,-1066.0,-2162.0,1807.0,2123.0,821.0
1845.0,-1446.0,-1724.0,-1061.0,-2155.0,1812.0,2121.0,833.0
1844.0,-1454.0,-1719.0,-1056.0,-2150.0,1816.0,2120.0,845.0
1842.0,-1454.0,-1718.0,-1055.0,-2148.0,1817.0,2119.0,855.0
1841.0,-1445.0,-1720.0,-1056.0,-2149.0,1814.0,2117.0,864.0
1838.0,-1432.0,-1722.0,-1059.0,-2152.0,1809.0,2116.0,874.0
1836.0,-1420.0,-1724.0,-1063.0,-2155.0,1804.0,2115.0,880.0
1836.0,-1411.0,-1726.0,-1065.0,-2157.0,1798.0,2113.0,886.0
1834.0,-1410.0,-1725.0,-1064.0,-2155.0,1796.0,2112.0,891.0
1834.0,-1416.0,-1722.0,-1061.0,-2151.0,1798.0,2111.0,897.0
1837.0,-1427.0,-1717.0,-1056.0,-2146.0,1801.0,2109.0,904.0
1837.0,-1439.0,-1711.0,-1052.0,-2141.0,1804.0,2108.0,914.0
1834.0,-1446.0,-1706.0,-1048.0,-2136.0,1806.0,2107.0,921.0
1835.0,-1447.0,-1706.0,-1048.0,-2135.0,1804.0,2105.0,926.0
1834.0,-1438.0,-1709.0,-1051.0,-2137.0,1798.0,2104.0,934.0
1832.0,-1427.0,-1712.0,-1054.0,-2140.0,1793.0,2103.0,940.0
1831.0,-1415.0,-1715.0,-1058.0,-2143.0,1788.0,2101.0,947.0
1830.0,-1407.0,-1717.0,-1061.0,-2146.0,1783.0,2100.0,951.0
1829.0,-1406.0,-1716.0,-1060.0,-2144.0,1782.0,2099.0,955.0
1829.0,-1414.0,-1713.0,-1057.0,-2140.0,1783.0,2098.0,960.0
1828.0,-1425.0,-1709.0,-1053.0,-2135.0,1786.0,2096.0,971.0
1827.0,-1436.0,-1704.0,-1048.0,-2130.0,1789.0,2095.0,982.0
1825.0,-1444.0,-1701.0,-1044.0,-2126.0,1790.0,2094.0,993.0
1823.0,-1443.0,-1700.0,-1043.0,-2125.0,1790.0,2092.0,1003.0
1822.0,-1436.0,-1702.0,-1046.0,-2126.0,1787.0,2091.0,1012.0
1818.0,-1423.0,-1705.0,-1049.0,-2128.0,1783.0,2090.0,1017.0
1816.0,-1411.0,-1709.0,-1053.0,-2130.0,1778.0,2088.0,1021.0
1812.0,-1400.0,-1711.0,-1055.0,-2132.0,1772.0,2087.0,1022.0
1812.0,-1399.0,-1709.0,-1053.0,-2131.0,1772.0,2086.0,1027.0
1810.0,-1403.0,-1704.0,-1049.0,-2126.0,1775.0,2084.0,1032.0
1809.0,-1413.0,-1699.0,-1044.0,-2121.0,1777.0,2083.0,1037.0
1808.0,-1424.0,-1694.0,-1039.0,-2115.0,1780.0,2082.0,1044.0
1808.0,-1433.0,-1690.0,-1035.0,-2111.0,1782.0,2080.0,1052.0
1811.0,-1435.0,-1690.0,-1035.0,-2110.0,1780.0,2079.0,1054.0
1812.0,-1428.0,-1692.0,-1038.0,-2113.0,1775.0,2078.0,1059.0
1814.0,-1418.0,-1696.0,-1042.0,-2117.0,1769.0,2077.0,1062.0
1812.0,-1405.0,-1699.0,-1045.0,-2119.0,1764.0,2075.0,1068.0
1810.0,-1395.0,-1700.0,-1047.0,-2120.0,1761.0,2074.0,1076.0
1810.0,-1394.0,-1699.0,-1046.0,-2118.0,1762.0,2073.0,1082.0
1811.0,-1400.0,-1696.0,-1043.0,-2114.0,1763.0,2071.0,1090.0
1812.0,-1410.0,-1691.0,-1039.0,-2110.0,1765.0,2070.0,1099.0
1811.0,-1420.0,-1685.0,-1034.0,-2104.0,1768.0,2069.0,1109.0
1809.0,-1427.0,-1680.0,-1029.0,-2098.0,1772.0,2067.0,1119.0
1808.0,-1427.0,-1680.0,-1029.0,-2097.0,1771.0,2066.0,1128.0
1808.0,-1422.0,-1682.0,-1031.0,-2099.0,1766.0,2065.0,1133.0
1806.0,-1411.0,-1686.0,-1035.0,-2103.0,1761.0,2064.0,1139.0
1805.0,-1399.0,-1688.0,-1038.0,-2105.0,1755.0,2062.0,1146.0
1805.0,-1391.0,-1691.0,-1040.0,-2106.0,1752.0,2061.0,1153.0
1804.0,-1392.0,-1690.0,-1040.0,-2105.0,1751.0,2060.0,1158.0
1804.0,-1397.0,-1688.0,-1037.0,-2102.0,1752.0,2058.0,1165.0
1803.0,-1406.0,-1682.0,-1032.0,-2096.0,1755.0,2057.0,1173.0
1801.0,-1417.0,-1676.0,-1027.0,-2091.0,1758.0,2056.0,1182.0
1801.0,-1424.0,-1672.0,-1023.0,-2086.0,1760.0,2054.0,1192.0
1801.0,-1424.0,-1671.0,-1023.0,-2085.0,1759.0,2053.0,1197.0
1800.0,-1417.0,-1673.0,-1025.0,-2086.0,1755.0,2052.0,1204.0
1800.0,-1407.0,-1676.0,-1029.0,-2089.0,1749.0,2051.0,1210.0
1799.0,-1395.0,-1679.0,-1033.0,-2091.0,1744.0,2049.0,1215.0
1798.0,-1385.0,-1681.0,-1035.0,-2093.0,1740.0,2048.0,1217.0
1799.0,-1386.0,-1680.0,-1034.0,-2092.0,1739.0,2047.0,1220.0
1797.0,-1393.0,-1677.0,-1030.0,-2089.0,1739.0,2045.0,1226.0
1796.0,-1403.0,-1673.0,-1026.0,-2085.0,1741.0,2044.0,1234.0
1797.0,-1415.0,-1669.0,-1023.0,-2081.0,1742.0,2043.0,1240.0
1796.0,-1422.0,-1665.0,-1020.0,-2076.0,1744.0,2042.0,1251.0
1795.0,-1421.0,-1663.0,-1018.0,-2073.0,1745.0,2040.0,1257.0
1793.0,-1412.0,-1664.0,-1019.0,-2073.0,1743.0,2039.0,1265.0
1792.0,-1400.0,-1666.0,-1023.0,-2075.0,1739.0,2038.0,1269.0
1791.0,-1388.0,-1670.0,-1027.0,-2078.0,1733.0,2036.0,1268.0
1790.0,-1379.0,-1672.0,-1030.0,-2080.0,1730.0,2035.0,1271.0
1789.0,-1378.0,-1671.0,-1029.0,-2079.0,1729.0,2034.0,1275.0
1787.0,-1384.0,-1668.0,-1027.0,-2076.0,1729.0,2033.0,1278.0
1788.0,-1394.0,-1664.0,-1023.0,-2071.0,1731.0,2031.0,1286.0
1790.0,-1406.0,-1659.0,-1018.0,-2066.0,1734.0,2030.0,1295.0
1790.0,-1414.0,-1656.0,-1015.0,-2063.0,1735.0,2029.0,1301.0
1788.0,-1414.0,-1655.0,-1014.0,-2061.0,1733.0,2027.0,1306.0
1787.0,-1407.0,-1657.0,-1017.0,-2062.0,1728.0,2026.0,1306.0
1787.0,-1397.0,-1661.0,-1021.0,-2066.0,1722.0,2025.0,1306.0
1784.0,-1384.0,-1663.0,-1025.0,-2070.0,1716.0,2024.0,1310.0
1784.0,-1373.0,-1666.0,-1029.0,-2072.0,1712.0,2022.0,1312.0
1783.0,-1371.0,-1664.0,-1028.0,-2071.0,1712.0,2021.0,1313.0
1781.0,-1377.0,-1661.0,-1024.0,-2066.0,1714.0,2020.0,1316.0
1782.0,-1389.0,-1657.0,-1020.0,-2062.0,1715.0,2019.0,1319.0
1784.0,-1401.0,-1653.0,-1016.0,-2058.0,1716.0,2017.0,1328.0
1783.0,-1409.0,-1648.0,-1012.0,-2053.0,1720.0,2016.0,1338.0
1779.0,-1406.0,-1644.0,-1009.0,-2049.0,1722.0,2015.0,1346.0
1778.0,-1398.0,-1645.0,-1011.0,-2050.0,1719.0,2014.0,1354.0
1776.0,-1388.0,-1649.0,-1014.0,-2053.0,1713.0,2012.0,1357.0
1777.0,-1378.0,-1653.0,-1018.0,-2057.0,1708.0,2011.0,1359.0
1775.0,-1368.0,-1657.0,-1022.0,-2060.0,1704.0,2010.0,1363.0
1773.0,-1366.0,-1657.0,-1021.0,-2058.0,1703.0,2008.0,1364.0
1771.0,-1371.0,-1653.0,-1019.0,-2054.0,1706.0,2007.0,1367.0
1768.0,-1379.0,-1648.0,-1015.0,-2049.0,1710.0,2006.0,1375.0
1766.0,-1390.0,-1642.0,-1010.0,-2043.0,1713.0,2005.0,1378.0
1764.0,-1397.0,-1639.0,-1006.0,-2039.0,1715.0,2003.0,1384.0
1761.0,-1397.0,-1638.0,-1005.0,-2038.0,1713.0,2002.0,1391.0
1759.0,-1388.0,-1640.0,-1007.0,-2039.0,1709.0,2001.0,1394.0
1759.0,-1377.0,-1643.0,-1011.0,-2044.0,1702.0,2000.0,1395.0
1760.0,-1367.0,-1647.0,-1014.0,-2048.0,1694.0,1998.0,1392.0
1758.0,-1358.0,-1649.0,-1018.0,-2051.0,1688.0,1997.0,1389.0
1757.0,-1357.0,-1648.0,-1017.0,-2050.0,1686.0,1996.0,1387.0
1755.0,-1361.0,-1645.0,-1015.0,-2047.0,1687.0,1995.0,1386.0
1756.0,-1371.0,-1641.0,-1011.0,-2041.0,1690.0,1993.0,1390.0
1756.0,-1382.0,-1636.0,-1007.0,-2036.0,1693.0,1992.0,1396.0
1757.0,-1391.0,-1632.0,-1003.0,-2031.0,1695.0,1991.0,1401.0
1757.0,-1392.0,-1630.0,-1002.0,-2030.0,1694.0,1990.0,1406.0
1758.0,-1385.0,-1632.0,-1005.0,-2031.0,1689.0,1988.0,1403.0
1756.0,-1373.0,-1636.0,-1009.0,-2034.0,1684.0,1987.0,1401.0
1753.0,-1359.0,-1639.0,-1013.0,-2037.0,1679.0,1986.0,1400.0
1753.0,-1351.0,-1642.0,-1016.0,-2038.0,1675.0,1985.0,1399.0
1754.0,-1352.0,-1641.0,-1015.0,-2037.0,1674.0,1983.0,1398.0
1755.0,-1360.0,-1638.0,-1012.0,-2033.0,1676.0,1982.0,1402.0
1754.0,-1368.0,-1633.0,-1007.0,-2026.0,1681.0,1981.0,1411.0
1751.0,-1377.0,-1628.0,-1002.0,-2020.0,1686.0,1980.0,1419.0
1746.0,-1382.0,-1623.0,-999.0,-2017.0,1687.0,1978.0,1423.0
1742.0,-1380.0,-1621.0,-997.0,-2015.0,1686.0,1977.0,1427.0
1742.0,-1374.0,-1623.0,-999.0,-2017.0,1680.0,1976.0,1430.0
1744.0,-1364.0,-1626.0,-1002.0,-2019.0,1675.0,1975.0,1433.0
1742.0,-1354.0,-1629.0,-1005.0,-2023.0,1670.0,1973.0,1434.0
1741.0,-1346.0,-1631.0,-1007.0,-2024.0,1666.0,1972.0,1432.0
1740.0,-1345.0,-1630.0,-1007.0,-2022.0,1666.0,1971.0,1430.0
1742.0,-1352.0,-1627.0,-1005.0,-2018.0,1667.0,1970.0,1429.0
1741.0,-1361.0,-1622.0,-1001.0,-2013.0,1670.0,1968.0,1432.0
1738.0,-1370.0,-1617.0,-996.0,-2008.0,1673.0,1967.0,1438.0
1738.0,-1377.0,-1613.0,-992.0,-2002.0,1676.0,1966.0,1440.0
1737.0,-1377.0,-1612.0,-991.0,-2001.0,1675.0,1965.0,1441.0
1737.0,-1371.0,-1614.0,-995.0,-2005.0,1669.0,1964.0,1443.0
1735.0,-1357.0,-1617.0,-999.0,-2008.0,1664.0,1962.0,1442.0
1734.0,-1343.0,-1618.0,-1002.0,-2010.0,1661.0,1961.0,1439.0
1733.0,-1333.0,-1620.0,-1004.0,-2012.0,1657.0,1960.0,1438.0
1733.0,-1332.0,-1619.0,-1003.0,-2010.0,1656.0,1959.0,1441.0
1734.0,-1338.0,-1617.0,-1000.0,-2006.0,1657.0,1957.0,1445.0
1734.0,-1348.0,-1613.0,-994.0,-2001.0,1660.0,1956.0,1449.0
1735.0,-1359.0,-1607.0,-989.0,-1996.0,1663.0,1955.0,1454.0
1736.0,-1368.0,-1603.0,-985.0,-1992.0,1664.0,1954.0,1456.0
1739.0,-1368.0,-1601.0,-984.0,-1990.0,1663.0,1952.0,1454.0
1741.0,-1362.0,-1602.0,-985.0,-1991.0,1660.0,1951.0,1456.0
1743.0,-1353.0,-1604.0,-988.0,-1993.0,1655.0,1950.0,1457.0
1743.0,-1341.0,-1607.0,-991.0,-1996.0,1651.0,1949.0,1459.0
1743.0,-1330.0,-1607.0,-991.0,-1995.0,1649.0,1948.0,1460.0
1744.0,-1328.0,-1605.0,-989.0,-1993.0,1650.0,1946.0,1461.0
1747.0,-1334.0,-1601.0,-986.0,-1989.0,1652.0,1945.0,1463.0
1749.0,-1345.0,-1595.0,-980.0,-1982.0,1655.0,1944.0,1470.0
1751.0,-1356.0,-1590.0,-974.0,-1977.0,1658.0,1943.0,1473.0
1754.0,-1365.0,-1587.0,-970.0,-1972.0,1661.0,1941.0,1476.0
1757.0,-1365.0,-1585.0,-967.0,-1969.0,1661.0,1940.0,1478.0
1759.0,-1358.0,-1587.0,-968.0,-1970.0,1657.0,1939.0,1480.0
1761.0,-1348.0,-1590.0,-972.0,-1973.0,1652.0,1938.0,1478.0
1761.0,-1334.0,-1592.0,-975.0,-1974.0,1650.0,1937.0,1478.0
1763.0,-1325.0,-1594.0,-976.0,-1975.0,1648.0,1935.0,1479.0
1765.0,-1325.0,-1592.0,-975.0,-1973.0,1647.0,1934.0,1480.0
1766.0,-1331.0,-1589.0,-972.0,-1969.0,1648.0,1933.0,1483.0
1766.0,-1340.0,-1584.0,-967.0,-1963.0,1651.0,1932.0,1488.0
1768.0,-1351.0,-1579.0,-961.0,-1958.0,1654.0,1930.0,1491.0
1772.0,-1320.0,-1589.0,-966.0,-1959.0,1638.0,1923.0,1496.0
1772.0,-1317.0,-1588.0,-965.0,-1955.0,1641.0,1922.0,1499.0
1772.0,-1322.0,-1584.0,-962.0,-1950.0,1644.0,1921.0,1505.0
1771.0,-1331.0,-1578.0,-956.0,-1944.0,1649.0,1920.0,1513.0
1771.0,-1341.0,-1572.0,-949.0,-1936.0,1655.0,1918.0,1520.0
1772.0,-1350.0,-1569.0,-946.0,-1932.0,1657.0,1917.0,1524.0
1772.0,-1351.0,-1568.0,-945.0,-1932.0,1655.0,1916.0,1528.0
1772.0,-1343.0,-1570.0,-947.0,-1935.0,1650.0,1915.0,1531.0
1773.0,-1332.0,-1573.0,-950.0,-1937.0,1644.0,1914.0,1530.0
1774.0,-1321.0,-1576.0,-954.0,-1940.0,1640.0,1912.0,1528.0
1774.0,-1311.0,-1580.0,-957.0,-1942.0,1636.0,1911.0,1523.0
1773.0,-1309.0,-1579.0,-957.0,-1941.0,1635.0,1910.0,1521.0
1775.0,-1316.0,-1575.0,-953.0,-1936.0,1636.0,1909.0,1519.0
1776.0,-1328.0,-1571.0,-947.0,-1930.0,1640.0,1908.0,1519.0
1775.0,-1338.0,-1566.0,-943.0,-1924.0,1643.0,1906.0,1519.0
1773.0,-1345.0,-1563.0,-940.0,-1921.0,1644.0,1905.0,1520.0
1773.0,-1345.0,-1562.0,-940.0,-1920.0,1642.0,1904.0,1519.0
1774.0,-1338.0,-1562.0,-942.0,-1921.0,1637.0,1903.0,1518.0
1775.0,-1328.0,-1566.0,-946.0,-1925.0,1631.0,1902.0,1519.0
1777.0,-1318.0,-1569.0,-950.0,-1928.0,1626.0,1900.0,1516.0
1777.0,-1308.0,-1570.0,-952.0,-1929.0,1622.0,1899.0,1517.0
1777.0,-1305.0,-1570.0,-952.0,-1927.0,1621.0,1898.0,1518.0
1776.0,-1310.0,-1567.0,-948.0,-1923.0,1624.0,1897.0,1520.0
1777.0,-1318.0,-1562.0,-942.0,-1917.0,1629.0,1896.0,1523.0
1776.0,-1328.0,-1556.0,-936.0,-1909.0,1636.0,1894.0,1527.0
1776.0,-1337.0,-1551.0,-932.0,-1904.0,1638.0,1893.0,1530.0
1779.0,-1339.0,-1551.0,-932.0,-1903.0,1637.0,1892.0,1526.0
1775.0,-1329.0,-1553.0,-933.0,-1903.0,1635.0,1891.0,1523.0
1773.0,-1317.0,-1557.0,-937.0,-1907.0,1629.0,1890.0,1521.0
1773.0,-1305.0,-1561.0,-942.0,-1911.0,1622.0,1888.0,1517.0
1770.0,-1296.0,-1563.0,-946.0,-1914.0,1616.0,1887.0,1515.0
1769.0,-1295.0,-1563.0,-946.0,-1913.0,1614.0,1886.0,1511.0
1769.0,-1304.0,-1559.0,-943.0,-1909.0,1615.0,1885.0,1508.0
1769.0,-1315.0,-1555.0,-938.0,-1905.0,1617.0,1884.0,1508.0
1768.0,-1326.0,-1551.0,-934.0,-1900.0,1620.0,1883.0,1511.0
1764.0,-1332.0,-1546.0,-929.0,-1895.0,1623.0,1881.0,1514.0
1763.0,-1332.0,-1544.0,-928.0,-1892.0,1623.0,1880.0,1511.0
1762.0,-1326.0,-1546.0,-931.0,-1893.0,1618.0,1879.0,1504.0
1764.0,-1317.0,-1549.0,-935.0,-1897.0,1612.0,1878.0,1501.0
1763.0,-1303.0,-1551.0,-938.0,-1900.0,1606.0,1877.0,1498.0
1761.0,-1293.0,-1553.0,-941.0,-1902.0,1600.0,1875.0,1493.0
1762.0,-1291.0,-1552.0,-942.0,-1902.0,1598.0,1874.0,1492.0
1761.0,-1296.0,-1549.0,-937.0,-1897.0,1601.0,1873.0,1493.0
1760.0,-1305.0,-1544.0,-933.0,-1891.0,1605.0,1872.0,1496.0
1761.0,-1318.0,-1540.0,-928.0,-1885.0,1610.0,1871.0,1500.0
1763.0,-1329.0,-1538.0,-924.0,-1881.0,1613.0,1870.0,1504.0
1760.0,-1327.0,-1536.0,-922.0,-1878.0,1614.0,1868.0,1507.0
1759.0,-1319.0,-1536.0,-922.0,-1878.0,1612.0,1867.0,1510.0
1757.0,-1306.0,-1537.0,-924.0,-1880.0,1609.0,1866.0,1497.0
1757.0,-1294.0,-1540.0,-928.0,-1883.0,1603.0,1865.0,1473.0
1758.0,-1287.0,-1541.0,-929.0,-1885.0,1598.0,1864.0,1456.0
1761.0,-1289.0,-1540.0,-928.0,-1883.0,1596.0,1863.0,1447.0
1761.0,-1294.0,-1535.0,-924.0,-1879.0,1597.0,1861.0,1445.0
1760.0,-1303.0,-1530.0,-918.0,-1872.0,1601.0,1860.0,1448.0
1759.0,-1313.0,-1524.0,-913.0,-1865.0,1605.0,1859.0,1451.0
1757.0,-1320.0,-1519.0,-908.0,-1859.0,1608.0,1858.0,1457.0
1757.0,-1320.0,-1517.0,-906.0,-1857.0,1608.0,1857.0,1459.0
1757.0,-1312.0,-1518.0,-908.0,-1858.0,1605.0,1856.0,1457.0
1758.0,-1301.0,-1521.0,-912.0,-1860.0,1601.0,1854.0,1458.0
1759.0,-1290.0,-1525.0,-916.0,-1863.0,1594.0,1853.0,1452.0
1761.0,-1283.0,-1527.0,-918.0,-1866.0,1589.0,1852.0,1441.0
1763.0,-1283.0,-1525.0,-917.0,-1864.0,1588.0,1851.0,1425.0
1761.0,-1287.0,-1520.0,-914.0,-1859.0,1591.0,1850.0,1407.0
1760.0,-1295.0,-1515.0,-909.0,-1853.0,1593.0,1849.0,1391.0
1761.0,-1306.0,-1510.0,-903.0,-1847.0,1598.0,1847.0,1376.0
1760.0,-1314.0,-1507.0,-899.0,-1842.0,1600.0,1846.0,1371.0
1760.0,-1315.0,-1506.0,-898.0,-1840.0,1600.0,1845.0,1366.0
1764.0,-1310.0,-1509.0,-901.0,-1842.0,1596.0,1844.0,1356.0
1766.0,-1300.0,-1511.0,-903.0,-1844.0,1591.0,1843.0,1350.0
1770.0,-1290.0,-1513.0,-905.0,-1845.0,1586.0,1842.0,1346.0
1774.0,-1281.0,-1514.0,-905.0,-1844.0,1585.0,1840.0,1349.0
1778.0,-1279.0,-1511.0,-902.0,-1840.0,1587.0,1839.0,1358.0
1783.0,-1284.0,-1508.0,-898.0,-1835.0,1592.0,1838.0,1366.0
1788.0,-1295.0,-1504.0,-894.0,-1829.0,1596.0,1837.0,1374.0
1792.0,-1306.0,-1502.0,-890.0,-1824.0,1600.0,1836.0,1371.0
1791.0,-1313.0,-1501.0,-888.0,-1820.0,1602.0,1835.0,1366.0
1788.0,-1313.0,-1501.0,-889.0,-1819.0,1601.0,1833.0,1356.0
1786.0,-1305.0,-1503.0,-893.0,-1821.0,1597.0,1832.0,1341.0
1782.0,-1292.0,-1507.0,-899.0,-1826.0,1589.0,1831.0,1326.0
1781.0,-1280.0,-1510.0,-904.0,-1832.0,1582.0,1830.0,1311.0
1781.0,-1271.0,-1513.0,-909.0,-1837.0,1575.0,1829.0,1297.0
1779.0,-1271.0,-1513.0,-910.0,-1837.0,1573.0,1828.0,1286.0
1780.0,-1278.0,-1511.0,-908.0,-1834.0,1577.0,1827.0,1277.0
1783.0,-1293.0,-1509.0,-904.0,-1830.0,1582.0,1825.0,1266.0
1781.0,-1305.0,-1505.0,-900.0,-1825.0,1587.0,1824.0,1259.0
1781.0,-1313.0,-1501.0,-898.0,-1822.0,1589.0,1823.0,1255.0
1783.0,-1313.0,-1499.0,-897.0,-1822.0,1587.0,1822.0,1249.0
1778.0,-1303.0,-1499.0,-898.0,-1823.0,1584.0,1821.0,1241.0
1773.0,-1290.0,-1500.0,-901.0,-1824.0,1582.0,1820.0,1239.0
1771.0,-1277.0,-1503.0,-904.0,-1826.0,1580.0,1819.0,1238.0
1766.0,-1265.0,-1505.0,-906.0,-1828.0,1577.0,1817.0,1235.0
1761.0,-1261.0,-1504.0,-905.0,-1826.0,1577.0,1816.0,1231.0
1756.0,-1264.0,-1499.0,-901.0,-1822.0,1580.0,1815.0,1227.0
1754.0,-1274.0,-1493.0,-896.0,-1818.0,1582.0,1814.0,1225.0
1753.0,-1286.0,-1488.0,-892.0,-1813.0,1585.0,1813.0,1221.0
1752.0,-1293.0,-1484.0,-888.0,-1808.0,1587.0,1812.0,1217.0
1751.0,-1294.0,-1484.0,-888.0,-1807.0,1584.0,1811.0,1212.0
1749.0,-1288.0,-1487.0,-891.0,-1811.0,1579.0,1809.0,1203.0
1749.0,-1278.0,-1492.0,-896.0,-1815.0,1572.0,1808.0,1192.0
1750.0,-1269.0,-1497.0,-902.0,-1820.0,1565.0,1807.0,1182.0
1748.0,-1260.0,-1500.0,-906.0,-1823.0,1559.0,1806.0,1176.0
1746.0,-1259.0,-1499.0,-906.0,-1822.0,1559.0,1805.0,1170.0
1744.0,-1265.0,-1494.0,-904.0,-1820.0,1560.0,1804.0,1164.0
1744.0,-1273.0,-1489.0,-899.0,-1814.0,1564.0,1803.0,1165.0
1743.0,-1283.0,-1484.0,-893.0,-1808.0,1568.0,1801.0,1165.0
1742.0,-1292.0,-1481.0,-889.0,-1803.0,1572.0,1800.0,1160.0
1742.0,-1293.0,-1479.0,-888.0,-1803.0,1572.0,1799.0,1157.0
1740.0,-1285.0,-1481.0,-890.0,-1803.0,1569.0,1798.0,1148.0
1738.0,-1273.0,-1484.0,-893.0,-1805.0,1565.0,1797.0,1141.0
1736.0,-1261.0,-1485.0,-896.0,-1807.0,1561.0,1796.0,1133.0
1734.0,-1250.0,-1488.0,-898.0,-1810.0,1555.0,1795.0,1122.0
1731.0,-1249.0,-1487.0,-898.0,-1810.0,1554.0,1794.0,1115.0
1731.0,-1255.0,-1484.0,-895.0,-1806.0,1556.0,1792.0,1108.0
1728.0,-1263.0,-1478.0,-891.0,-1800.0,1562.0,1791.0,1106.0
1726.0,-1272.0,-1472.0,-885.0,-1793.0,1567.0,1790.0,1101.0
1724.0,-1278.0,-1469.0,-881.0,-1789.0,1569.0,1789.0,1099.0
1724.0,-1279.0,-1469.0,-880.0,-1788.0,1567.0,1788.0,1094.0
1725.0,-1273.0,-1472.0,-883.0,-1790.0,1562.0,1787.0,1086.0
1728.0,-1264.0,-1474.0,-887.0,-1794.0,1556.0,1786.0,1073.0
1726.0,-1252.0,-1476.0,-891.0,-1799.0,1548.0,1785.0,1058.0
1727.0,-1245.0,-1479.0,-894.0,-1801.0,1544.0,1783.0,1044.0
1728.0,-1245.0,-1477.0,-893.0,-1799.0,1545.0,1782.0,1032.0
1727.0,-1251.0,-1473.0,-889.0,-1794.0,1549.0,1781.0,1023.0
1726.0,-1258.0,-1468.0,-883.0,-1787.0,1553.0,1780.0,1015.0
1722.0,-1262.0,-1460.0,-875.0,-1779.0,1559.0,1779.0,1008.0
1718.0,-1265.0,-1451.0,-867.0,-1770.0,1565.0,1778.0,999.0
1712.0,-1258.0,-1443.0,-858.0,-1763.0,1570.0,1777.0,995.0
1702.0,-1239.0,-1435.0,-849.0,-1755.0,1573.0,1776.0,995.0
1690.0,-1215.0,-1427.0,-840.0,-1748.0,1577.0,1774.0,995.0
1678.0,-1194.0,-1420.0,-834.0,-1743.0,1579.0,1773.0,990.0
1674.0,-1183.0,-1418.0,-831.0,-1739.0,1582.0,1772.0,983.0
1681.0,-1187.0,-1418.0,-829.0,-1736.0,1585.0,1771.0,981.0
1694.0,-1209.0,-1420.0,-829.0,-1736.0,1583.0,1770.0,972.0
1709.0,-1240.0,-1418.0,-823.0,-1733.0,1583.0,1769.0,963.0
1723.0,-1269.0,-1412.0,-811.0,-1726.0,1586.0,1768.0,953.0
1743.0,-1298.0,-1408.0,-800.0,-1718.0,1592.0,1767.0,941.0
1775.0,-1323.0,-1412.0,-794.0,-1714.0,1595.0,1766.0,932.0
1821.0,-1350.0,-1421.0,-793.0,-1713.0,1593.0,1764.0,924.0
1878.0,-1376.0,-1431.0,-788.0,-1708.0,1597.0,1763.0,920.0
1933.0,-1396.0,-1442.0,-785.0,-1703.0,1602.0,1762.0,917.0
1985.0,-1418.0,-1458.0,-794.0,-1706.0,1598.0,1761.0,908.0
2023.0,-1450.0,-1474.0,-810.0,-1722.0,1580.0,1760.0,887.0
2039.0,-1471.0,-1489.0,-834.0,-1742.0,1558.0,1759.0,868.0
2041.0,-1480.0,-1506.0,-864.0,-1761.0,1542.0,1758.0,857.0
2027.0,-1479.0,-1527.0,-904.0,-1782.0,1527.0,1757.0,845.0
1996.0,-1463.0,-1547.0,-947.0,-1806.0,1510.0,1756.0,834.0
1954.0,-1428.0,-1559.0,-983.0,-1827.0,1495.0,1755.0,824.0
1900.0,-1381.0,-1564.0,-1012.0,-1848.0,1476.0,1753.0,807.0
1870.0,-1353.0,-1577.0,-1043.0,-1873.0,1452.0,1752.0,782.0
1841.0,-1331.0,-1586.0,-1063.0,-1892.0,1432.0,1751.0,756.0
1813.0,-1316.0,-1585.0,-1067.0,-1902.0,1418.0,1750.0,732.0
1800.0,-1318.0,-1583.0,-1063.0,-1904.0,1411.0,1749.0,711.0
1795.0,-1324.0,-1577.0,-1052.0,-1897.0,1415.0,1748.0,704.0
1788.0,-1328.0,-1567.0,-1037.0,-1886.0,1422.0,1747.0,701.0
1774.0,-1329.0,-1555.0,-1021.0,-1872.0,1431.0,1746.0,698.0
1755.0,-1325.0,-1542.0,-1003.0,-1857.0,1442.0,1745.0,693.0
1731.0,-1314.0,-1530.0,-985.0,-1844.0,1449.0,1744.0,687.0
1713.0,-1298.0,-1520.0,-973.0,-1837.0,1449.0,1742.0,682.0
1703.0,-1281.0,-1515.0,-965.0,-1833.0,1450.0,1741.0,673.0
1692.0,-1262.0,-1510.0,-958.0,-1828.0,1453.0,1740.0,664.0
1687.0,-1247.0,-1504.0,-950.0,-1821.0,1457.0,1739.0,657.0
1687.0,-1247.0,-1495.0,-937.0,-1811.0,1463.0,1738.0,651.0
1690.0,-1253.0,-1484.0,-920.0,-1796.0,1475.0,1737.0,651.0
1691.0,-1261.0,-1470.0,-903.0,-1780.0,1487.0,1736.0,654.0
1690.0,-1270.0,-1457.0,-889.0,-1768.0,1497.0,1735.0,656.0
1688.0,-1274.0,-1446.0,-876.0,-1756.0,1505.0,1734.0,656.0
1683.0,-1269.0,-1436.0,-868.0,-1749.0,1510.0,1733.0,656.0
1677.0,-1258.0,-1433.0,-866.0,-1747.0,1507.0,1732.0,649.0
1672.0,-1244.0,-1432.0,-865.0,-1747.0,1503.0,1730.0,643.0
1668.0,-1227.0,-1432.0,-865.0,-1747.0,1499.0,1729.0,636.0
1665.0,-1213.0,-1431.0,-866.0,-1749.0,1494.0,1728.0,625.0
1664.0,-1210.0,-1429.0,-864.0,-1747.0,1494.0,1727.0,610.0
1663.0,-1212.0,-1423.0,-858.0,-1740.0,1500.0,1726.0,603.0
1663.0,-1222.0,-1418.0,-854.0,-1733.0,1506.0,1725.0,593.0
1664.0,-1232.0,-1413.0,-850.0,-1727.0,1509.0,1724.0,584.0
1665.0,-1242.0,-1411.0,-849.0,-1727.0,1507.0,1723.0,579.0
1667.0,-1244.0,-1409.0,-849.0,-1727.0,1504.0,1722.0,576.0
1671.0,-1241.0,-1411.0,-848.0,-1727.0,1503.0,1721.0,571.0
1675.0,-1232.0,-1414.0,-850.0,-1727.0,1503.0,1720.0,566.0
1672.0,-1218.0,-1417.0,-852.0,-1727.0,1504.0,1719.0,558.0
1669.0,-1207.0,-1419.0,-854.0,-1729.0,1500.0,1717.0,550.0
1669.0,-1206.0,-1416.0,-851.0,-1727.0,1499.0,1716.0,544.0
1669.0,-1210.0,-1410.0,-846.0,-1720.0,1504.0,1715.0,539.0
1667.0,-1216.0,-1404.0,-838.0,-1711.0,1512.0,1714.0,538.0
1664.0,-1222.0,-1398.0,-832.0,-1703.0,1520.0,1713.0,540.0
1665.0,-1231.0,-1393.0,-828.0,-1698.0,1523.0,1712.0,538.0
1668.0,-1234.0,-1390.0,-827.0,-1697.0,1523.0,1711.0,531.0
1671.0,-1227.0,-1390.0,-828.0,-1697.0,1521.0,1710.0,518.0
1675.0,-1217.0,-1393.0,-830.0,-1699.0,1516.0,1709.0,496.0
1677.0,-1208.0,-1397.0,-835.0,-1704.0,1509.0,1708.0,470.0
1679.0,-1201.0,-1399.0,-838.0,-1706.0,1504.0,1707.0,453.0
1683.0,-1201.0,-1399.0,-837.0,-1704.0,1504.0,1706.0,441.0
1682.0,-1205.0,-1397.0,-835.0,-1702.0,1504.0,1705.0,437.0
1681.0,-1215.0,-1392.0,-829.0,-1696.0,1507.0,1703.0,432.0
1682.0,-1226.0,-1387.0,-824.0,-1690.0,1510.0,1702.0,418.0
1680.0,-1233.0,-1383.0,-820.0,-1686.0,1511.0,1701.0,399.0
1680.0,-1235.0,-1382.0,-820.0,-1686.0,1508.0,1700.0,382.0
1683.0,-1231.0,-1384.0,-824.0,-1689.0,1504.0,1699.0,403.0
1684.0,-1222.0,-1387.0,-828.0,-1692.0,1499.0,1698.0,448.0
1682.0,-1208.0,-1390.0,-832.0,-1694.0,1494.0,1697.0,500.0
1679.0,-1197.0,-1393.0,-835.0,-1697.0,1490.0,1696.0,551.0
1679.0,-1196.0,-1394.0,-835.0,-1696.0,1489.0,1695.0,595.0
1677.0,-1200.0,-1391.0,-833.0,-1693.0,1489.0,1694.0,620.0
1672.0,-1207.0,-1387.0,-828.0,-1688.0,1492.0,1693.0,627.0
1671.0,-1217.0,-1382.0,-824.0,-1683.0,1492.0,1692.0,626.0
1672.0,-1228.0,-1380.0,-822.0,-1680.0,1492.0,1691.0,619.0
1675.0,-1232.0,-1381.0,-824.0,-1682.0,1488.0,1690.0,604.0
1679.0,-1230.0,-1384.0,-828.0,-1685.0,1482.0,1689.0,584.0
1679.0,-1220.0,-1387.0,-832.0,-1687.0,1477.0,1687.0,568.0
1679.0,-1210.0,-1391.0,-836.0,-1691.0,1470.0,1686.0,551.0
1681.0,-1203.0,-1395.0,-841.0,-1697.0,1462.0,1685.0,528.0
1681.0,-1203.0,-1396.0,-840.0,-1695.0,1462.0,1684.0,501.0
1679.0,-1208.0,-1392.0,-836.0,-1690.0,1466.0,1683.0,480.0
1678.0,-1217.0,-1387.0,-832.0,-1685.0,1469.0,1682.0,466.0
1678.0,-1229.0,-1382.0,-827.0,-1681.0,1471.0,1681.0,460.0
1682.0,-1242.0,-1378.0,-822.0,-1676.0,1475.0,1680.0,449.0
1685.0,-1245.0,-1376.0,-820.0,-1670.0,1479.0,1679.0,438.0
1682.0,-1235.0,-1377.0,-821.0,-1669.0,1480.0,1678.0,430.0
1680.0,-1223.0,-1379.0,-823.0,-1671.0,1477.0,1677.0,417.0
1679.0,-1209.0,-1382.0,-823.0,-1672.0,1474.0,1676.0,401.0
1677.0,-1198.0,-1381.0,-822.0,-1671.0,1472.0,1675.0,387.0
1677.0,-1196.0,-1378.0,-820.0,-1669.0,1473.0,1674.0,375.0
1678.0,-1202.0,-1374.0,-817.0,-1664.0,1475.0,1673.0,361.0
1678.0,-1212.0,-1371.0,-815.0,-1660.0,1478.0,1672.0,347.0
1684.0,-1229.0,-1370.0,-816.0,-1659.0,1475.0,1671.0,332.0
1693.0,-1247.0,-1371.0,-818.0,-1660.0,1471.0,1670.0,318.0
1700.0,-1257.0,-1373.0,-818.0,-1661.0,1468.0,1668.0,303.0
1708.0,-1257.0,-1375.0,-820.0,-1665.0,1462.0,1667.0,287.0
1709.0,-1247.0,-1377.0,-823.0,-1668.0,1457.0,1666.0,269.0
1706.0,-1232.0,-1379.0,-825.0,-1668.0,1456.0,1665.0,246.0
1704.0,-1221.0,-1381.0,-828.0,-1668.0,1454.0,1664.0,224.0
1706.0,-1222.0,-1380.0,-830.0,-1668.0,1450.0,1663.0,203.0
1710.0,-1234.0,-1379.0,-829.0,-1667.0,1447.0,1662.0,183.0
1714.0,-1247.0,-1377.0,-825.0,-1666.0,1445.0,1661.0,168.0
1715.0,-1259.0,-1374.0,-819.0,-1661.0,1447.0,1660.0,160.0
1713.0,-1267.0,-1369.0,-813.0,-1654.0,1452.0,1659.0,152.0
1708.0,-1269.0,-1368.0,-810.0,-1650.0,1454.0,1658.0,139.0
1683.0,-1258.0,-1373.0,-814.0,-1653.0,1450.0,1657.0,120.0
1656.0,-1241.0,-1379.0,-820.0,-1657.0,1445.0,1656.0,94.0
1639.0,-1224.0,-1384.0,-825.0,-1661.0,1438.0,1655.0,66.0
1630.0,-1216.0,-1390.0,-832.0,-1668.0,1429.0,1654.0,42.0
1620.0,-1214.0,-1392.0,-834.0,-1670.0,1424.0,1653.0,26.0
1616.0,-1224.0,-1393.0,-836.0,-1672.0,1419.0,1652.0,13.0
1618.0,-1243.0,-1394.0,-838.0,-1674.0,1413.0,1651.0,2.0
1620.0,-1261.0,-1394.0,-838.0,-1673.0,1412.0,1650.0,-6.0
1621.0,-1276.0,-1394.0,-837.0,-1671.0,1412.0,1649.0,-12.0
1622.0,-1282.0,-1395.0,-838.0,-1672.0,1409.0,1648.0,-16.0
1619.0,-1276.0,-1398.0,-841.0,-1674.0,1407.0,1647.0,-24.0
1614.0,-1263.0,-1401.0,-844.0,-1675.0,1404.0,1646.0,-33.0
1612.0,-1251.0,-1405.0,-848.0,-1678.0,1399.0,1645.0,-43.0
1611.0,-1243.0,-1407.0,-850.0,-1680.0,1395.0,1643.0,-56.0
1611.0,-1243.0,-1406.0,-849.0,-1678.0,1396.0,1642.0,-66.0
1607.0,-1246.0,-1401.0,-845.0,-1672.0,1400.0,1641.0,-72.0
1602.0,-1250.0,-1394.0,-837.0,-1662.0,1407.0,1640.0,-73.0
1601.0,-1260.0,-1388.0,-831.0,-1656.0,1412.0,1639.0,-71.0
1599.0,-1267.0,-1385.0,-827.0,-1652.0,1412.0,1638.0,-70.0
1598.0,-1268.0,-1383.0,-826.0,-1650.0,1412.0,1637.0,-73.0
1597.0,-1258.0,-1384.0,-828.0,-1649.0,1411.0,1636.0,-75.0
1595.0,-1246.0,-1387.0,-830.0,-1650.0,1408.0,1635.0,-82.0
1592.0,-1235.0,-1389.0,-833.0,-1653.0,1402.0,1634.0,-91.0
1594.0,-1228.0,-1391.0,-837.0,-1656.0,1396.0,1633.0,-102.0
1599.0,-1232.0,-1392.0,-839.0,-1657.0,1391.0,1632.0,-117.0
1598.0,-1238.0,-1388.0,-838.0,-1652.0,1392.0,1631.0,-123.0
1597.0,-1246.0,-1383.0,-835.0,-1647.0,1395.0,1630.0,-124.0
1596.0,-1253.0,-1379.0,-832.0,-1643.0,1396.0,1629.0,-128.0
1595.0,-1257.0,-1375.0,-828.0,-1638.0,1398.0,1628.0,-131.0
1595.0,-1257.0,-1374.0,-827.0,-1636.0,1396.0,1627.0,-135.0
1602.0,-1258.0,-1376.0,-830.0,-1637.0,1392.0,1626.0,-140.0
1610.0,-1254.0,-1379.0,-835.0,-1638.0,1390.0,1625.0,-147.0
1617.0,-1250.0,-1384.0,-839.0,-1639.0,1389.0,1624.0,-158.0
1617.0,-1239.0,-1386.0,-844.0,-1640.0,1387.0,1623.0,-168.0
1618.0,-1237.0,-1385.0,-845.0,-1637.0,1388.0,1622.0,-174.0
1618.0,-1241.0,-1381.0,-844.0,-1632.0,1392.0,1621.0,-177.0
1615.0,-1248.0,-1376.0,-840.0,-1626.0,1395.0,1620.0,-180.0
1616.0,-1261.0,-1372.0,-836.0,-1621.0,1397.0,1619.0,-186.0
1614.0,-1267.0,-1368.0,-833.0,-1617.0,1398.0,1618.0,-191.0
1613.0,-1267.0,-1367.0,-833.0,-1614.0,1398.0,1617.0,-198.0
1617.0,-1263.0,-1370.0,-836.0,-1616.0,1393.0,1616.0,-208.0
1620.0,-1255.0,-1374.0,-842.0,-1620.0,1385.0,1615.0,-220.0
1626.0,-1248.0,-1380.0,-849.0,-1624.0,1378.0,1614.0,-234.0
1632.0,-1245.0,-1384.0,-854.0,-1627.0,1373.0,1613.0,-248.0
1633.0,-1246.0,-1384.0,-855.0,-1625.0,1373.0,1612.0,-258.0
1631.0,-1251.0,-1382.0,-853.0,-1622.0,1374.0,1611.0,-270.0
1628.0,-1258.0,-1378.0,-850.0,-1617.0,1378.0,1610.0,-281.0
1623.0,-1266.0,-1373.0,-847.0,-1610.0,1384.0,1609.0,-290.0
1619.0,-1271.0,-1368.0,-843.0,-1604.0,1389.0,1608.0,-294.0
1620.0,-1272.0,-1366.0,-841.0,-1600.0,1390.0,1607.0,-299.0
1623.0,-1267.0,-1368.0,-844.0,-1600.0,1386.0,1606.0,-308.0
1628.0,-1259.0,-1373.0,-850.0,-1604.0,1381.0,1605.0,-323.0
1633.0,-1252.0,-1378.0,-857.0,-1608.0,1375.0,1604.0,-343.0
1637.0,-1246.0,-1381.0,-863.0,-1609.0,1371.0,1603.0,-369.0
1638.0,-1247.0,-1382.0,-865.0,-1608.0,1368.0,1602.0,-399.0
1647.0,-1259.0,-1381.0,-868.0,-1607.0,1367.0,1601.0,-441.0
1658.0,-1279.0,-1380.0,-869.0,-1604.0,1367.0,1600.0,-497.0
1660.0,-1293.0,-1378.0,-869.0,-1600.0,1369.0,1599.0,-588.0
1659.0,-1304.0,-1378.0,-868.0,-1596.0,1371.0,1598.0,-768.0
1657.0,-1303.0,-1377.0,-869.0,-1594.0,1370.0,1597.0,-945.0
1655.0,-1296.0,-1379.0,-872.0,-1596.0,1367.0,1596.0,-1074.0
1659.0,-1290.0,-1383.0,-877.0,-1598.0,1363.0,1595.0,-1182.0
1658.0,-1279.0,-1385.0,-880.0,-1598.0,1362.0,1594.0,-1266.0
1663.0,-1275.0,-1390.0,-884.0,-1597.0,1363.0,1593.0,-1329.0
1666.0,-1276.0,-1391.0,-884.0,-1591.0,1370.0,1592.0,-1371.0
1666.0,-1284.0,-1390.0,-883.0,-1585.0,1376.0,1591.0,-1403.0
1661.0,-1290.0,-1387.0,-879.0,-1578.0,1384.0,1590.0,-1430.0
1657.0,-1297.0,-1381.0,-873.0,-1568.0,1394.0,1589.0,-1453.0
1656.0,-1304.0,-1377.0,-866.0,-1560.0,1404.0,1588.0,-1467.0
1657.0,-1305.0,-1374.0,-863.0,-1555.0,1408.0,1587.0,-1484.0
1660.0,-1301.0,-1376.0,-866.0,-1556.0,1407.0,1586.0,-1511.0
1657.0,-1289.0,-1379.0,-871.0,-1557.0,1407.0,1585.0,-1537.0
1652.0,-1275.0,-1382.0,-876.0,-1557.0,1406.0,1584.0,-1564.0
1658.0,-1273.0,-1389.0,-883.0,-1558.0,1403.0,1583.0,-1592.0
1670.0,-1285.0,-1394.0,-889.0,-1559.0,1400.0,1582.0,-1616.0
1677.0,-1298.0,-1393.0,-886.0,-1556.0,1403.0,1581.0,-1631.0
1676.0,-1310.0,-1389.0,-881.0,-1550.0,1407.0,1580.0,-1650.0
1673.0,-1318.0,-1384.0,-877.0,-1544.0,1412.0,1579.0,-1669.0
1670.0,-1323.0,-1379.0,-873.0,-1538.0,1415.0,1578.0,-1683.0
1664.0,-1318.0,-1376.0,-870.0,-1536.0,1415.0,1577.0,-1696.0
1657.0,-1308.0,-1375.0,-869.0,-1536.0,1413.0,1576.0,-1711.0
1653.0,-1296.0,-1378.0,-871.0,-1538.0,1413.0,1575.0,-1727.0
1652.0,-1284.0,-1380.0,-876.0,-1539.0,1413.0,1574.0,-1742.0
1653.0,-1276.0,-1384.0,-881.0,-1541.0,1414.0,1573.0,-1758.0
1660.0,-1284.0,-1385.0,-883.0,-1540.0,1417.0,1572.0,-1775.0
1657.0,-1292.0,-1384.0,-881.0,-1537.0,1423.0,1571.0,-1784.0
1653.0,-1300.0,-1379.0,-874.0,-1531.0,1431.0,1570.0,-1790.0
1649.0,-1307.0,-1373.0,-868.0,-1523.0,1438.0,1569.0,-1807.0
1651.0,-1318.0,-1366.0,-861.0,-1516.0,1444.0,1568.0,-1828.0
1652.0,-1317.0,-1362.0,-855.0,-1510.0,1447.0,1567.0,-1844.0
1654.0,-1310.0,-1364.0,-857.0,-1511.0,1444.0,1566.0,-1862.0
1651.0,-1297.0,-1367.0,-861.0,-1514.0,1440.0,1565.0,-1892.0
1641.0,-1280.0,-1370.0,-865.0,-1517.0,1435.0,1564.0,-1917.0
1638.0,-1266.0,-1371.0,-868.0,-1518.0,1431.0,1563.0,-1929.0
1638.0,-1264.0,-1370.0,-868.0,-1516.0,1429.0,1562.0,-1941.0
1639.0,-1270.0,-1368.0,-864.0,-1513.0,1428.0,1561.0,-1956.0
1643.0,-1284.0,-1364.0,-861.0,-1508.0,1430.0,1560.0,-1973.0
1639.0,-1291.0,-1358.0,-856.0,-1502.0,1437.0,1559.0,-1987.0
1633.0,-1295.0,-1353.0,-851.0,-1496.0,1442.0,1558.0,-1998.0
1630.0,-1293.0,-1351.0,-849.0,-1494.0,1444.0,1557.0,-2008.0
1626.0,-1285.0,-1353.0,-853.0,-1495.0,1442.0,1556.0,-2024.0
1627.0,-1278.0,-1361.0,-863.0,-1502.0,1436.0,1555.0,-2045.0
1627.0,-1268.0,-1368.0,-870.0,-1507.0,1429.0,1554.0,-2059.0
1629.0,-1261.0,-1373.0,-874.0,-1512.0,1424.0,1553.0,-2061.0
1629.0,-1258.0,-1373.0,-873.0,-1511.0,1425.0,1552.0,-2039.0
1625.0,-1258.0,-1368.0,-867.0,-1504.0,1432.0,1551.0,-2018.0
1623.0,-1265.0,-1363.0,-861.0,-1498.0,1438.0,1550.0,-2005.0
1620.0,-1273.0,-1359.0,-858.0,-1494.0,1444.0,1549.0,-1992.0
1613.0,-1274.0,-1354.0,-852.0,-1488.0,1451.0,1548.0,-1973.0
1603.0,-1267.0,-1351.0,-850.0,-1486.0,1454.0,1547.0,-1958.0
1599.0,-1256.0,-1352.0,-852.0,-1486.0,1455.0,1546.0,-1950.0
1598.0,-1248.0,-1358.0,-859.0,-1491.0,1449.0,1545.0,-1954.0
1593.0,-1235.0,-1363.0,-867.0,-1496.0,1439.0,1544.0,-1963.0
1594.0,-1227.0,-1368.0,-872.0,-1501.0,1429.0,1543.0,-1975.0
1595.0,-1227.0,-1368.0,-871.0,-1500.0,1426.0,1542.0,-1988.0
1600.0,-1237.0,-1367.0,-870.0,-1497.0,1425.0,1541.0,-1998.0
1605.0,-1251.0,-1365.0,-867.0,-1494.0,1427.0,1540.0,-2002.0
1599.0,-1255.0,-1359.0,-861.0,-1486.0,1436.0,1539.0,-2004.0
1593.0,-1258.0,-1354.0,-856.0,-1480.0,1447.0,1538.0,-2007.0
1595.0,-1258.0,-1353.0,-855.0,-1477.0,1452.0,1538.0,-2013.0
1595.0,-1252.0,-1354.0,-854.0,-1477.0,1453.0,1537.0,-2021.0
1591.0,-1241.0,-1355.0,-855.0,-1479.0,1452.0,1536.0,-2032.0
1585.0,-1226.0,-1357.0,-858.0,-1481.0,1449.0,1535.0,-2038.0
1582.0,-1214.0,-1358.0,-860.0,-1482.0,1448.0,1534.0,-2042.0
1576.0,-1209.0,-1357.0,-858.0,-1479.0,1452.0,1533.0,-2046.0
1571.0,-1211.0,-1353.0,-855.0,-1474.0,1456.0,1532.0,-2050.0
1573.0,-1223.0,-1351.0,-852.0,-1470.0,1460.0,1531.0,-2054.0
1575.0,-1235.0,-1349.0,-850.0,-1466.0,1463.0,1530.0,-2063.0
1578.0,-1247.0,-1347.0,-848.0,-1463.0,1464.0,1529.0,-2082.0
1583.0,-1253.0,-1348.0,-848.0,-1463.0,1461.0,1528.0,-2103.0
1588.0,-1252.0,-1352.0,-853.0,-1466.0,1453.0,1527.0,-2111.0
1586.0,-1243.0,-1357.0,-859.0,-1471.0,1442.0,1526.0,-2121.0
1584.0,-1232.0,-1360.0,-862.0,-1474.0,1433.0,1525.0,-2130.0
1582.0,-1220.0,-1362.0,-863.0,-1475.0,1426.0,1524.0,-2125.0
1576.0,-1214.0,-1361.0,-862.0,-1473.0,1423.0,1523.0,-2128.0
1571.0,-1215.0,-1358.0,-858.0,-1469.0,1422.0,1522.0,-2142.0
1568.0,-1221.0,-1354.0,-854.0,-1463.0,1423.0,1521.0,-2145.0
1564.0,-1228.0,-1348.0,-849.0,-1457.0,1425.0,1520.0,-2140.0
1558.0,-1230.0,-1344.0,-843.0,-1450.0,1428.0,1519.0,-2137.0
1552.0,-1225.0,-1342.0,-842.0,-1447.0,1428.0,1518.0,-2137.0
1547.0,-1214.0,-1343.0,-844.0,-1447.0,1422.0,1517.0,-2135.0
1542.0,-1200.0,-1347.0,-847.0,-1451.0,1415.0,1516.0,-2130.0
1539.0,-1186.0,-1350.0,-851.0,-1454.0,1408.0,1515.0,-2119.0
1534.0,-1172.0,-1353.0,-855.0,-1457.0,1404.0,1514.0,-2111.0
1530.0,-1167.0,-1353.0,-855.0,-1456.0,1402.0,1514.0,-2112.0
1529.0,-1170.0,-1351.0,-854.0,-1453.0,1402.0,1513.0,-2109.0
1529.0,-1177.0,-1346.0,-850.0,-1449.0,1404.0,1512.0,-2106.0
1528.0,-1186.0,-1342.0,-847.0,-1444.0,1406.0,1511.0,-2111.0
1528.0,-1193.0,-1337.0,-843.0,-1440.0,1405.0,1510.0,-2118.0
1528.0,-1194.0,-1333.0,-841.0,-1438.0,1401.0,1509.0,-2126.0
1519.0,-1181.0,-1331.0,-840.0,-1437.0,1395.0,1508.0,-2134.0
1508.0,-1160.0,-1330.0,-840.0,-1436.0,1390.0,1507.0,-2138.0
1502.0,-1142.0,-1332.0,-844.0,-1438.0,1383.0,1506.0,-2143.0
1500.0,-1131.0,-1335.0,-849.0,-1442.0,1375.0,1505.0,-2145.0
1510.0,-1136.0,-1338.0,-856.0,-1446.0,1370.0,1504.0,-2151.0
1515.0,-1145.0,-1339.0,-862.0,-1448.0,1368.0,1503.0,-2168.0
1521.0,-1157.0,-1339.0,-865.0,-1447.0,1371.0,1502.0,-2186.0
1521.0,-1165.0,-1334.0,-859.0,-1442.0,1378.0,1501.0,-2185.0
1521.0,-1169.0,-1328.0,-853.0,-1436.0,1384.0,1500.0,-2185.0
1520.0,-1168.0,-1325.0,-852.0,-1435.0,1387.0,1499.0,-2186.0
1520.0,-1159.0,-1322.0,-853.0,-1435.0,1387.0,1498.0,-2187.0
1519.0,-1145.0,-1320.0,-854.0,-1435.0,1386.0,1497.0,-2198.0
1519.0,-1130.0,-1318.0,-855.0,-1433.0,1384.0,1497.0,-2206.0
1516.0,-1117.0,-1316.0,-855.0,-1430.0,1385.0,1496.0,-2211.0
1513.0,-1113.0,-1311.0,-854.0,-1423.0,1387.0,1495.0,-2222.0
1512.0,-1117.0,-1305.0,-851.0,-1406.0,1389.0,1494.0,-2240.0
1511.0,-1124.0,-1297.0,-846.0,-1388.0,1393.0,1493.0,-2242.0
1513.0,-1132.0,-1290.0,-841.0,-1372.0,1404.0,1492.0,-2245.0
1515.0,-1140.0,-1284.0,-839.0,-1362.0,1413.0,1491.0,-2245.0
1516.0,-1143.0,-1281.0,-839.0,-1356.0,1417.0,1490.0,-2250.0
1515.0,-1136.0,-1281.0,-842.0,-1354.0,1414.0,1489.0,-2261.0
1515.0,-1126.0,-1283.0,-848.0,-1355.0,1408.0,1488.0,-2246.0
1513.0,-1112.0,-1285.0,-853.0,-1356.0,1401.0,1487.0,-2190.0
1514.0,-1104.0,-1288.0,-860.0,-1360.0,1394.0,1486.0,-2188.0
1514.0,-1104.0,-1287.0,-862.0,-1360.0,1390.0,1485.0,-2226.0
1512.0,-1109.0,-1284.0,-862.0,-1358.0,1390.0,1484.0,-2265.0
1506.0,-1116.0,-1278.0,-859.0,-1354.0,1393.0,1483.0,-2305.0
1498.0,-1120.0,-1271.0,-855.0,-1348.0,1397.0,1482.0,-2342.0
1491.0,-1123.0,-1266.0,-851.0,-1343.0,1401.0,1482.0,-2368.0
1488.0,-1123.0,-1263.0,-850.0,-1341.0,1402.0,1481.0,-2340.0
1485.0,-1114.0,-1262.0,-851.0,-1341.0,1400.0,1480.0,-2233.0
1482.0,-1105.0,-1265.0,-855.0,-1345.0,1394.0,1479.0,-2146.0
1468.0,-1091.0,-1270.0,-863.0,-1351.0,1387.0,1478.0,-2112.0
1448.0,-1077.0,-1274.0,-870.0,-1358.0,1378.0,1477.0,-2143.0
1426.0,-1073.0,-1278.0,-878.0,-1363.0,1371.0,1476.0,-2196.0
1420.0,-1078.0,-1274.0,-879.0,-1362.0,1370.0,1475.0,-2203.0
1437.0,-1090.0,-1264.0,-872.0,-1353.0,1376.0,1474.0,-2124.0
1442.0,-1095.0,-1252.0,-865.0,-1342.0,1384.0,1473.0,-2048.0
1445.0,-1098.0,-1243.0,-860.0,-1335.0,1389.0,1472.0,-2036.0
1453.0,-1101.0,-1239.0,-861.0,-1333.0,1389.0,1471.0,-2038.0
1459.0,-1097.0,-1240.0,-865.0,-1335.0,1386.0,1470.0,-2083.0
1464.0,-1089.0,-1241.0,-865.0,-1336.0,1383.0,1469.0,-2127.0
1460.0,-1073.0,-1239.0,-865.0,-1336.0,1381.0,1469.0,-2088.0
1453.0,-1057.0,-1238.0,-867.0,-1337.0,1378.0,1468.0,-2060.0
1448.0,-1049.0,-1235.0,-868.0,-1335.0,1378.0,1467.0,-2001.0
1443.0,-1045.0,-1228.0,-864.0,-1328.0,1382.0,1466.0,-1957.0
1447.0,-1054.0,-1224.0,-860.0,-1322.0,1385.0,1465.0,-1988.0
1455.0,-1069.0,-1221.0,-859.0,-1319.0,1385.0,1464.0,-2035.0
1461.0,-1079.0,-1216.0,-857.0,-1315.0,1387.0,1463.0,-2017.0
1466.0,-1080.0,-1215.0,-858.0,-1314.0,1388.0,1462.0,-1964.0
1476.0,-1079.0,-1220.0,-865.0,-1318.0,1383.0,1461.0,-1904.0
1485.0,-1074.0,-1224.0,-872.0,-1322.0,1377.0,1460.0,-1845.0
1488.0,-1061.0,-1226.0,-875.0,-1322.0,1376.0,1459.0,-1786.0
1491.0,-1047.0,-1225.0,-874.0,-1319.0,1383.0,1458.0,-1740.0
1493.0,-1040.0,-1221.0,-870.0,-1314.0,1409.0,1457.0,-1698.0
1496.0,-1042.0,-1214.0,-864.0,-1307.0,1428.0,1457.0,-1682.0
1502.0,-1051.0,-1208.0,-860.0,-1301.0,1437.0,1456.0,-1744.0
1501.0,-1058.0,-1202.0,-855.0,-1295.0,1443.0,1455.0,-1741.0
1508.0,-1062.0,-1194.0,-850.0,-1289.0,1451.0,1454.0,-1692.0
1516.0,-1061.0,-1188.0,-846.0,-1283.0,1461.0,1453.0,-1709.0
1524.0,-1054.0,-1185.0,-845.0,-1281.0,1469.0,1452.0,-1748.0
1530.0,-1039.0,-1183.0,-845.0,-1280.0,1474.0,1451.0,-1774.0
1537.0,-1023.0,-1181.0,-846.0,-1279.0,1477.0,1450.0,-1794.0
1543.0,-1010.0,-1180.0,-845.0,-1278.0,1480.0,1449.0,-1813.0
1550.0,-1003.0,-1176.0,-844.0,-1273.0,1485.0,1448.0,-1809.0
1563.0,-1011.0,-1172.0,-841.0,-1268.0,1490.0,1447.0,-1820.0
1576.0,-1025.0,-1168.0,-837.0,-1264.0,1494.0,1447.0,-1829.0
1581.0,-1035.0,-1161.0,-831.0,-1258.0,1499.0,1446.0,-1787.0
1583.0,-1041.0,-1156.0,-827.0,-1251.0,1505.0,1445.0,-1738.0
1588.0,-1042.0,-1154.0,-826.0,-1248.0,1506.0,1444.0,-1744.0
1594.0,-1038.0,-1155.0,-829.0,-1249.0,1504.0,1443.0,-1816.0
1598.0,-1028.0,-1158.0,-833.0,-1252.0,1501.0,1442.0,-1782.0
1605.0,-1016.0,-1159.0,-834.0,-1253.0,1499.0,1441.0,-1713.0
1609.0,-1003.0,-1158.0,-833.0,-1251.0,1499.0,1440.0,-1665.0
1607.0,-994.0,-1153.0,-830.0,-1247.0,1502.0,1439.0,-1634.0
1605.0,-993.0,-1147.0,-825.0,-1241.0,1507.0,1438.0,-1636.0
1607.0,-1000.0,-1143.0,-820.0,-1235.0,1511.0,1437.0,-1598.0
1610.0,-1009.0,-1138.0,-815.0,-1230.0,1515.0,1437.0,-1581.0
1619.0,-1024.0,-1137.0,-816.0,-1228.0,1515.0,1436.0,-1578.0
1630.0,-1033.0,-1140.0,-822.0,-1231.0,1511.0,1435.0,-1573.0
1641.0,-1033.0,-1144.0,-830.0,-1236.0,1506.0,1434.0,-1554.0
1649.0,-1025.0,-1147.0,-835.0,-1238.0,1505.0,1433.0,-1505.0
1651.0,-1011.0,-1148.0,-835.0,-1237.0,1506.0,1432.0,-1504.0
1655.0,-998.0,-1148.0,-832.0,-1236.0,1509.0,1431.0,-1522.0
1662.0,-995.0,-1144.0,-829.0,-1232.0,1521.0,1430.0,-1543.0
1663.0,-997.0,-1139.0,-825.0,-1226.0,1528.0,1429.0,-1551.0
1666.0,-1002.0,-1132.0,-819.0,-1218.0,1535.0,1428.0,-1490.0
1674.0,-1010.0,-1125.0,-812.0,-1209.0,1541.0,1428.0,-1431.0
1679.0,-1017.0,-1119.0,-804.0,-1203.0,1545.0,1427.0,-1552.0
1686.0,-1018.0,-1115.0,-797.0,-1198.0,1545.0,1426.0,-1701.0
1692.0,-1010.0,-1113.0,-793.0,-1194.0,1543.0,1425.0,-1727.0
1698.0,-997.0,-1113.0,-792.0,-1193.0,1540.0,1424.0,-1761.0
1706.0,-982.0,-1112.0,-790.0,-1192.0,1536.0,1423.0,-1787.0
1717.0,-970.0,-1111.0,-787.0,-1189.0,1536.0,1422.0,-1749.0
1731.0,-968.0,-1108.0,-783.0,-1184.0,1537.0,1421.0,-1718.0
1747.0,-975.0,-1105.0,-776.0,-1177.0,1540.0,1420.0,-1703.0
1764.0,-987.0,-1100.0,-770.0,-1170.0,1545.0,1420.0,-1734.0
1783.0,-999.0,-1094.0,-762.0,-1162.0,1552.0,1419.0,-1795.0
1796.0,-1005.0,-1086.0,-753.0,-1152.0,1562.0,1418.0,-1784.0
1810.0,-1002.0,-1080.0,-743.0,-1143.0,1572.0,1417.0,-1737.0
1822.0,-992.0,-1077.0,-735.0,-1136.0,1579.0,1416.0,-1664.0
1839.0,-979.0,-1075.0,-729.0,-1130.0,1584.0,1415.0,-1655.0
1859.0,-966.0,-1073.0,-724.0,-1125.0,1589.0,1414.0,-1661.0
1880.0,-957.0,-1070.0,-719.0,-1120.0,1593.0,1413.0,-1608.0
1899.0,-953.0,-1065.0,-712.0,-1112.0,1599.0,1412.0,-1517.0
1919.0,-953.0,-1056.0,-700.0,-1099.0,1609.0,1412.0,-1428.0
1942.0,-959.0,-1045.0,-690.0,-1086.0,1619.0,1411.0,-1384.0
1976.0,-975.0,-1039.0,-683.0,-1076.0,1625.0,1410.0,-1374.0
2011.0,-993.0,-1034.0,-675.0,-1067.0,1630.0,1409.0,-1388.0
2043.0,-999.0,-1027.0,-665.0,-1056.0,1638.0,1408.0,-1426.0
2079.0,-999.0,-1021.0,-658.0,-1049.0,1643.0,1407.0,-1496.0
2117.0,-992.0,-1015.0,-651.0,-1042.0,1648.0,1406.0,-1540.0
2151.0,-980.0,-1006.0,-644.0,-1034.0,1654.0,1405.0,-1562.0
2177.0,-968.0,-999.0,-637.0,-1026.0,1663.0,1404.0,-1568.0
2183.0,-964.0,-996.0,-635.0,-1023.0,1666.0,1404.0,-1579.0
2175.0,-962.0,-993.0,-632.0,-1019.0,1669.0,1403.0,-1575.0
2178.0,-966.0,-987.0,-627.0,-1012.0,1675.0,1402.0,-1512.0
2188.0,-976.0,-980.0,-620.0,-1005.0,1682.0,1401.0,-1420.0
2229.0,-943.0,-982.0,-623.0,-998.0,1683.0,1396.0,-1516.0
2243.0,-946.0,-985.0,-625.0,-998.0,1682.0,1395.0,-1534.0
2249.0,-950.0,-983.0,-623.0,-995.0,1686.0,1394.0,-1426.0
2254.0,-959.0,-981.0,-621.0,-992.0,1690.0,1393.0,-1272.0
2260.0,-968.0,-977.0,-617.0,-987.0,1694.0,1392.0,-1165.0
2261.0,-973.0,-973.0,-612.0,-982.0,1697.0,1391.0,-1080.0
2260.0,-971.0,-969.0,-606.0,-978.0,1699.0,1390.0,-924.0
2260.0,-965.0,-969.0,-603.0,-977.0,1696.0,1389.0,-828.0
2260.0,-952.0,-969.0,-600.0,-976.0,1693.0,1389.0,-763.0
2255.0,-932.0,-969.0,-598.0,-975.0,1691.0,1388.0,-725.0
2247.0,-914.0,-969.0,-597.0,-974.0,1689.0,1387.0,-720.0
2247.0,-910.0,-969.0,-594.0,-972.0,1688.0,1386.0,-633.0
2253.0,-917.0,-969.0,-591.0,-970.0,1688.0,1385.0,-544.0
2261.0,-931.0,-969.0,-590.0,-969.0,1688.0,1384.0,-478.0
2265.0,-944.0,-969.0,-589.0,-968.0,1687.0,1383.0,-424.0
2267.0,-960.0,-973.0,-588.0,-970.0,1685.0,1383.0,-391.0
2267.0,-972.0,-980.0,-594.0,-976.0,1678.0,1382.0,-384.0
2264.0,-971.0,-987.0,-599.0,-983.0,1670.0,1381.0,-347.0
2251.0,-957.0,-991.0,-601.0,-987.0,1663.0,1380.0,-337.0
2235.0,-943.0,-995.0,-604.0,-992.0,1657.0,1379.0,-214.0
2216.0,-930.0,-1000.0,-609.0,-997.0,1649.0,1378.0,18.0
2189.0,-922.0,-1005.0,-612.0,-1002.0,1642.0,1377.0,56.0
2166.0,-923.0,-1008.0,-614.0,-1005.0,1639.0,1376.0,-92.0
2147.0,-930.0,-1011.0,-616.0,-1006.0,1637.0,1376.0,-214.0
2118.0,-938.0,-1017.0,-623.0,-1010.0,1633.0,1375.0,-261.0
2090.0,-946.0,-1024.0,-630.0,-1015.0,1629.0,1374.0,-231.0
2064.0,-944.0,-1029.0,-635.0,-1018.0,1628.0,1373.0,-254.0
2053.0,-938.0,-1033.0,-637.0,-1019.0,1624.0,1372.0,-417.0
2054.0,-934.0,-1039.0,-641.0,-1023.0,1618.0,1371.0,-428.0
2065.0,-926.0,-1043.0,-642.0,-1024.0,1616.0,1370.0,-383.0
2090.0,-918.0,-1041.0,-639.0,-1021.0,1621.0,1370.0,-356.0
2108.0,-920.0,-1041.0,-636.0,-1019.0,1625.0,1369.0,-496.0
2111.0,-927.0,-1043.0,-636.0,-1020.0,1624.0,1368.0,-602.0
2093.0,-935.0,-1046.0,-641.0,-1023.0,1619.0,1367.0,-557.0
2076.0,-943.0,-1046.0,-643.0,-1025.0,1616.0,1366.0,-493.0
2059.0,-949.0,-1046.0,-641.0,-1025.0,1615.0,1365.0,-468.0
2035.0,-945.0,-1047.0,-640.0,-1027.0,1611.0,1364.0,-417.0
2011.0,-936.0,-1052.0,-646.0,-1032.0,1603.0,1364.0,-318.0
1992.0,-924.0,-1058.0,-654.0,-1039.0,1597.0,1363.0,-309.0
1974.0,-906.0,-1061.0,-658.0,-1043.0,1595.0,1362.0,-405.0
1960.0,-893.0,-1063.0,-661.0,-1046.0,1597.0,1361.0,-631.0
1949.0,-892.0,-1065.0,-664.0,-1050.0,1597.0,1360.0,-776.0
1935.0,-896.0,-1066.0,-668.0,-1052.0,1594.0,1359.0,-763.0
1926.0,-906.0,-1066.0,-672.0,-1054.0,1592.0,1358.0,-717.0
1928.0,-916.0,-1061.0,-672.0,-1051.0,1596.0,1358.0,-717.0
1938.0,-922.0,-1049.0,-666.0,-1042.0,1605.0,1357.0,-756.0
1950.0,-927.0,-1041.0,-662.0,-1037.0,1612.0,1356.0,-696.0
1948.0,-913.0,-1031.0,-660.0,-1033.0,1617.0,1355.0,-677.0
1946.0,-899.0,-1027.0,-662.0,-1032.0,1618.0,1354.0,-816.0
1956.0,-895.0,-1029.0,-664.0,-1035.0,1616.0,1353.0,-962.0
1960.0,-892.0,-1033.0,-670.0,-1039.0,1613.0,1352.0,-1016.0
1965.0,-896.0,-1036.0,-674.0,-1040.0,1609.0,1352.0,-1070.0
1967.0,-903.0,-1033.0,-676.0,-1039.0,1609.0,1351.0,-1080.0
1963.0,-908.0,-1026.0,-672.0,-1033.0,1615.0,1350.0,-1009.0
1958.0,-912.0,-1019.0,-667.0,-1026.0,1625.0,1349.0,-932.0
1957.0,-918.0,-1013.0,-661.0,-1018.0,1634.0,1348.0,-907.0
1961.0,-918.0,-1006.0,-654.0,-1012.0,1637.0,1347.0,-891.0
1964.0,-910.0,-999.0,-650.0,-1009.0,1637.0,1346.0,-928.0
1965.0,-899.0,-996.0,-649.0,-1010.0,1634.0,1346.0,-885.0
1965.0,-888.0,-997.0,-648.0,-1013.0,1628.0,1345.0,-789.0
1961.0,-878.0,-999.0,-648.0,-1016.0,1623.0,1344.0,-640.0
1947.0,-872.0,-1000.0,-648.0,-1017.0,1621.0,1343.0,-470.0
1935.0,-875.0,-1003.0,-652.0,-1019.0,1619.0,1342.0,-538.0
1932.0,-886.0,-1004.0,-653.0,-1019.0,1619.0,1341.0,-704.0
1935.0,-898.0,-999.0,-649.0,-1015.0,1620.0,1341.0,-768.0
1935.0,-904.0,-992.0,-643.0,-1011.0,1624.0,1340.0,-935.0
1940.0,-905.0,-986.0,-638.0,-1007.0,1629.0,1339.0,-1057.0
1949.0,-901.0,-982.0,-636.0,-1005.0,1631.0,1338.0,-1138.0
1954.0,-890.0,-980.0,-636.0,-1005.0,1632.0,1337.0,-1316.0
1961.0,-878.0,-980.0,-637.0,-1007.0,1632.0,1336.0,-1596.0
1975.0,-873.0,-982.0,-638.0,-1009.0,1632.0,1336.0,-1772.0
1980.0,-872.0,-980.0,-637.0,-1009.0,1632.0,1335.0,-1760.0
1980.0,-877.0,-979.0,-638.0,-1011.0,1631.0,1334.0,-1796.0
1979.0,-890.0,-978.0,-639.0,-1012.0,1630.0,1333.0,-1826.0
1978.0,-902.0,-975.0,-636.0,-1010.0,1630.0,1332.0,-1748.0
1965.0,-912.0,-975.0,-635.0,-1011.0,1629.0,1331.0,-1642.0
1920.0,-914.0,-988.0,-648.0,-1027.0,1612.0,1330.0,-1579.0
1875.0,-910.0,-1003.0,-663.0,-1044.0,1591.0,1330.0,-1606.0
1845.0,-899.0,-1013.0,-671.0,-1056.0,1576.0,1329.0,-1723.0
1823.0,-881.0,-1017.0,-674.0,-1063.0,1566.0,1328.0,-1705.0
1811.0,-861.0,-1015.0,-671.0,-1062.0,1567.0,1327.0,-1726.0
1800.0,-845.0,-1006.0,-661.0,-1057.0,1576.0,1326.0,-1897.0
1803.0,-841.0,-994.0,-645.0,-1046.0,1586.0,1325.0,-2021.0
1814.0,-840.0,-975.0,-620.0,-1028.0,1602.0,1325.0,-2043.0
1823.0,-838.0,-953.0,-593.0,-1008.0,1620.0,1324.0,-2150.0
1837.0,-834.0,-928.0,-565.0,-985.0,1640.0,1323.0,-2227.0
1861.0,-829.0,-909.0,-543.0,-967.0,1657.0,1322.0,-2275.0
1897.0,-829.0,-901.0,-530.0,-954.0,1670.0,1321.0,-2246.0
1944.0,-836.0,-899.0,-523.0,-947.0,1678.0,1320.0,-2137.0
1974.0,-844.0,-901.0,-520.0,-948.0,1678.0,1320.0,-1881.0
2003.0,-856.0,-900.0,-514.0,-947.0,1677.0,1319.0,-1768.0
2030.0,-881.0,-902.0,-507.0,-946.0,1675.0,1318.0,-1749.0
2055.0,-916.0,-910.0,-505.0,-947.0,1675.0,1317.0,-1802.0
2090.0,-958.0,-914.0,-497.0,-942.0,1681.0,1316.0,-1756.0
2150.0,-1007.0,-918.0,-485.0,-930.0,1698.0,1316.0,-1641.0
2218.0,-1049.0,-923.0,-477.0,-918.0,1719.0,1315.0,-1450.0
2288.0,-1077.0,-928.0,-477.0,-909.0,1735.0,1314.0,-1335.0
2350.0,-1104.0,-941.0,-492.0,-920.0,1727.0,1313.0,-1196.0
2387.0,-1120.0,-962.0,-523.0,-946.0,1702.0,1312.0,-982.0
2408.0,-1116.0,-988.0,-567.0,-977.0,1676.0,1311.0,-805.0
2414.0,-1102.0,-1017.0,-621.0,-1012.0,1653.0,1311.0,-732.0
2396.0,-1082.0,-1040.0,-670.0,-1046.0,1634.0,1310.0,-796.0
2361.0,-1057.0,-1049.0,-704.0,-1072.0,1616.0,1309.0,-841.0
2311.0,-1027.0,-1048.0,-725.0,-1093.0,1599.0,1308.0,-843.0
2275.0,-1015.0,-1051.0,-749.0,-1114.0,1582.0,1307.0,-929.0
2252.0,-1008.0,-1051.0,-766.0,-1128.0,1571.0,1306.0,-950.0
2231.0,-1003.0,-1050.0,-770.0,-1134.0,1562.0,1306.0,-918.0
2213.0,-998.0,-1051.0,-766.0,-1137.0,1555.0,1305.0,-821.0
2208.0,-991.0,-1054.0,-759.0,-1135.0,1552.0,1304.0,-677.0
2205.0,-981.0,-1054.0,-751.0,-1132.0,1552.0,1303.0,-470.0
2192.0,-962.0,-1049.0,-739.0,-1124.0,1555.0,1302.0,-254.0
2178.0,-948.0,-1038.0,-720.0,-1110.0,1565.0,1302.0,-179.0
2154.0,-934.0,-1019.0,-694.0,-1091.0,1580.0,1301.0,-48.0
2127.0,-925.0,-1000.0,-669.0,-1072.0,1594.0,1300.0,16.0
2111.0,-925.0,-985.0,-651.0,-1057.0,1604.0,1299.0,146.0
2099.0,-925.0,-973.0,-636.0,-1044.0,1614.0,1298.0,168.0
2094.0,-923.0,-963.0,-622.0,-1031.0,1623.0,1297.0,218.0
2095.0,-918.0,-956.0,-609.0,-1021.0,1630.0,1297.0,303.0
2089.0,-908.0,-950.0,-599.0,-1014.0,1634.0,1296.0,518.0
2079.0,-894.0,-943.0,-590.0,-1007.0,1636.0,1295.0,841.0
2066.0,-879.0,-937.0,-583.0,-1002.0,1637.0,1294.0,995.0
2050.0,-870.0,-931.0,-576.0,-997.0,1637.0,1293.0,1254.0
2036.0,-868.0,-926.0,-571.0,-993.0,1638.0,1293.0,1632.0
2024.0,-872.0,-920.0,-566.0,-987.0,1640.0,1292.0,1956.0
2009.0,-875.0,-913.0,-561.0,-981.0,1643.0,1291.0,2386.0
1996.0,-875.0,-908.0,-556.0,-975.0,1647.0,1290.0,2860.0
1984.0,-871.0,-905.0,-555.0,-973.0,1647.0,1289.0,3133.0
1973.0,-863.0,-905.0,-557.0,-974.0,1645.0,1288.0,3207.0
1959.0,-848.0,-907.0,-561.0,-976.0,1642.0,1288.0,3075.0
1947.0,-833.0,-909.0,-565.0,-979.0,1637.0,1287.0,2707.0
1933.0,-819.0,-912.0,-568.0,-982.0,1632.0,1286.0,2592.0
1920.0,-816.0,-913.0,-570.0,-984.0,1628.0,1285.0,2558.0
1903.0,-817.0,-912.0,-570.0,-984.0,1626.0,1284.0,2425.0
1886.0,-822.0,-911.0,-569.0,-982.0,1625.0,1284.0,2348.0
1872.0,-831.0,-909.0,-568.0,-981.0,1622.0,1283.0,2597.0
1857.0,-838.0,-907.0,-566.0,-981.0,1619.0,1282.0,3117.0
1846.0,-843.0,-908.0,-567.0,-983.0,1612.0,1281.0,3702.0
1831.0,-835.0,-910.0,-571.0,-987.0,1605.0,1280.0,3961.0
1820.0,-826.0,-914.0,-575.0,-991.0,1600.0,1280.0,3927.0
1810.0,-818.0,-920.0,-582.0,-996.0,1593.0,1279.0,4248.0
1803.0,-811.0,-926.0,-588.0,-1001.0,1586.0,1278.0,4398.0
1797.0,-810.0,-929.0,-590.0,-1002.0,1582.0,1277.0,4258.0
1787.0,-811.0,-929.0,-590.0,-1001.0,1581.0,1276.0,4271.0
1788.0,-827.0,-930.0,-592.0,-1002.0,1576.0,1276.0,4302.0
1782.0,-836.0,-929.0,-590.0,-1000.0,1574.0,1275.0,3988.0
1769.0,-835.0,-922.0,-580.0,-994.0,1576.0,1274.0,3517.0
1756.0,-830.0,-917.0,-572.0,-989.0,1579.0,1273.0,3001.0
1748.0,-822.0,-916.0,-567.0,-987.0,1580.0,1272.0,2916.0
1743.0,-814.0,-920.0,-569.0,-991.0,1576.0,1272.0,3063.0
1741.0,-810.0,-928.0,-575.0,-998.0,1566.0,1271.0,3532.0
1740.0,-810.0,-938.0,-583.0,-1006.0,1555.0,1270.0,4140.0
1733.0,-812.0,-944.0,-587.0,-1011.0,1546.0,1269.0,4548.0
1723.0,-817.0,-946.0,-587.0,-1013.0,1540.0,1268.0,4888.0
1720.0,-831.0,-949.0,-589.0,-1015.0,1534.0,1268.0,5206.0
1714.0,-848.0,-951.0,-590.0,-1018.0,1530.0,1267.0,4980.0
1690.0,-853.0,-952.0,-590.0,-1020.0,1529.0,1266.0,4288.0
1661.0,-854.0,-957.0,-592.0,-1024.0,1525.0,1265.0,4055.0
1639.0,-848.0,-963.0,-595.0,-1030.0,1516.0,1264.0,4386.0
1624.0,-839.0,-968.0,-599.0,-1035.0,1501.0,1264.0,5072.0
1599.0,-825.0,-975.0,-605.0,-1043.0,1487.0,1263.0,5378.0
1569.0,-813.0,-983.0,-611.0,-1052.0,1478.0,1262.0,5574.0
1539.0,-809.0,-989.0,-616.0,-1059.0,1471.0,1261.0,6248.0
1522.0,-813.0,-989.0,-615.0,-1059.0,1473.0,1260.0,7350.0
1521.0,-824.0,-985.0,-610.0,-1054.0,1482.0,1260.0,8391.0
1519.0,-837.0,-977.0,-600.0,-1045.0,1492.0,1259.0,9240.0
1504.0,-844.0,-973.0,-597.0,-1042.0,1495.0,1258.0,9695.0
1502.0,-844.0,-972.0,-594.0,-1040.0,1496.0,1257.0,9664.0
1524.0,-842.0,-968.0,-588.0,-1034.0,1491.0,1256.0,9160.0
1543.0,-838.0,-965.0,-584.0,-1030.0,1482.0,1256.0,8799.0
1553.0,-829.0,-964.0,-582.0,-1029.0,1474.0,1255.0,8624.0
1553.0,-817.0,-963.0,-580.0,-1028.0,1469.0,1254.0,8311.0
1555.0,-816.0,-959.0,-575.0,-1024.0,1472.0,1253.0,7356.0
1563.0,-825.0,-955.0,-569.0,-1020.0,1476.0,1253.0,7159.0
1565.0,-836.0,-950.0,-562.0,-1013.0,1483.0,1252.0,7290.0
1567.0,-841.0,-941.0,-551.0,-1004.0,1496.0,1251.0,7609.0
1573.0,-847.0,-935.0,-543.0,-996.0,1505.0,1250.0,7864.0
1584.0,-849.0,-929.0,-536.0,-988.0,1509.0,1249.0,7440.0
1597.0,-843.0,-924.0,-530.0,-982.0,1510.0,1249.0,7392.0
1616.0,-834.0,-921.0,-524.0,-976.0,1507.0,1248.0,7844.0
1627.0,-825.0,-918.0,-521.0,-973.0,1500.0,1247.0,8333.0
1646.0,-818.0,-915.0,-516.0,-967.0,1497.0,1246.0,8395.0
1676.0,-822.0,-908.0,-508.0,-959.0,1501.0,1245.0,8340.0
1707.0,-830.0,-899.0,-498.0,-949.0,1507.0,1245.0,8026.0
1739.0,-844.0,-887.0,-484.0,-935.0,1517.0,1244.0,7589.0
1752.0,-852.0,-876.0,-471.0,-922.0,1531.0,1243.0,7523.0
1760.0,-852.0,-864.0,-459.0,-908.0,1545.0,1242.0,7808.0
1781.0,-852.0,-852.0,-445.0,-893.0,1557.0,1242.0,7738.0
1808.0,-845.0,-840.0,-431.0,-877.0,1567.0,1241.0,7671.0
1815.0,-837.0,-839.0,-429.0,-873.0,1567.0,1240.0,8079.0
1812.0,-827.0,-843.0,-432.0,-873.0,1563.0,1239.0,8270.0
1826.0,-821.0,-840.0,-428.0,-868.0,1564.0,1238.0,8035.0
1852.0,-825.0,-831.0,-417.0,-856.0,1572.0,1238.0,8363.0
1867.0,-827.0,-820.0,-406.0,-843.0,1581.0,1237.0,8771.0
1877.0,-833.0,-808.0,-393.0,-829.0,1594.0,1236.0,9326.0
1894.0,-844.0,-798.0,-382.0,-816.0,1609.0,1235.0,10033.0
1898.0,-850.0,-792.0,-375.0,-808.0,1619.0,1235.0,10531.0
1890.0,-850.0,-788.0,-370.0,-802.0,1625.0,1234.0,11224.0
1873.0,-844.0,-790.0,-372.0,-802.0,1620.0,1233.0,11925.0
1852.0,-834.0,-794.0,-377.0,-806.0,1613.0,1232.0,11914.0
1838.0,-827.0,-797.0,-381.0,-808.0,1622.0,1231.0,11984.0
1823.0,-813.0,-798.0,-383.0,-809.0,1623.0,1231.0,12386.0
1805.0,-809.0,-798.0,-384.0,-809.0,1618.0,1230.0,13104.0
1774.0,-810.0,-799.0,-386.0,-810.0,1613.0,1229.0,13891.0
1734.0,-815.0,-804.0,-392.0,-816.0,1602.0,1228.0,14339.0
1690.0,-823.0,-812.0,-400.0,-823.0,1588.0,1228.0,14345.0
1670.0,-827.0,-810.0,-399.0,-822.0,1583.0,1227.0,14496.0
1670.0,-827.0,-805.0,-393.0,-817.0,1589.0,1226.0,14976.0
1673.0,-816.0,-800.0,-389.0,-813.0,1599.0,1225.0,15327.0
1666.0,-801.0,-795.0,-385.0,-809.0,1612.0,1225.0,15339.0
1653.0,-788.0,-794.0,-386.0,-811.0,1620.0,1224.0,15259.0
1637.0,-777.0,-798.0,-391.0,-816.0,1618.0,1223.0,15030.0
1635.0,-773.0,-794.0,-389.0,-815.0,1611.0,1222.0,14792.0
1640.0,-773.0,-785.0,-382.0,-809.0,1608.0,1221.0,15202.0
1640.0,-779.0,-776.0,-375.0,-805.0,1605.0,1221.0,15579.0
1633.0,-784.0,-767.0,-368.0,-800.0,1604.0,1220.0,15580.0
1620.0,-788.0,-761.0,-362.0,-798.0,1604.0,1219.0,16057.0
1609.0,-788.0,-757.0,-358.0,-796.0,1601.0,1218.0,16782.0
1611.0,-781.0,-751.0,-352.0,-792.0,1604.0,1218.0,16991.0
1639.0,-770.0,-739.0,-340.0,-782.0,1616.0,1217.0,17039.0
1654.0,-758.0,-732.0,-333.0,-776.0,1617.0,1216.0,17418.0
1661.0,-748.0,-728.0,-329.0,-773.0,1610.0,1215.0,17468.0
1670.0,-744.0,-723.0,-324.0,-769.0,1604.0,1215.0,17806.0
1691.0,-745.0,-711.0,-312.0,-759.0,1612.0,1214.0,18456.0
1706.0,-746.0,-700.0,-302.0,-750.0,1615.0,1213.0,19318.0
1718.0,-754.0,-693.0,-294.0,-744.0,1614.0,1212.0,20102.0
1721.0,-757.0,-685.0,-288.0,-738.0,1616.0,1211.0,20545.0
1723.0,-754.0,-677.0,-283.0,-734.0,1618.0,1211.0,20753.0
1727.0,-745.0,-672.0,-280.0,-731.0,1614.0,1210.0,20521.0
1730.0,-734.0,-671.0,-280.0,-732.0,1610.0,1209.0,19359.0
1725.0,-724.0,-671.0,-282.0,-734.0,1605.0,1208.0,19146.0
1723.0,-714.0,-670.0,-283.0,-736.0,1600.0,1208.0,19733.0
1722.0,-710.0,-666.0,-281.0,-734.0,1599.0,1207.0,20579.0
1717.0,-711.0,-662.0,-278.0,-731.0,1593.0,1206.0,21427.0
1711.0,-720.0,-659.0,-276.0,-729.0,1589.0,1205.0,21777.0
1704.0,-731.0,-657.0,-274.0,-726.0,1588.0,1205.0,22263.0
1688.0,-740.0,-657.0,-276.0,-727.0,1587.0,1204.0,22754.0
1639.0,-745.0,-669.0,-290.0,-740.0,1569.0,1203.0,21131.0
1627.0,-746.0,-671.0,-295.0,-744.0,1558.0,1202.0,18639.0
1623.0,-742.0,-674.0,-301.0,-748.0,1544.0,1202.0,18837.0
1606.0,-736.0,-682.0,-312.0,-757.0,1526.0,1201.0,20314.0
1607.0,-725.0,-681.0,-313.0,-758.0,1522.0,1200.0,22216.0
1606.0,-724.0,-681.0,-315.0,-758.0,1523.0,1199.0,23599.0
1602.0,-733.0,-682.0,-318.0,-760.0,1524.0,1199.0,24746.0
1597.0,-745.0,-682.0,-321.0,-763.0,1523.0,1198.0,25078.0
1579.0,-755.0,-685.0,-325.0,-768.0,1515.0,1197.0,24514.0
1552.0,-766.0,-691.0,-334.0,-776.0,1499.0,1196.0,25432.0
1514.0,-771.0,-703.0,-348.0,-790.0,1483.0,1196.0,26508.0
1480.0,-771.0,-716.0,-363.0,-805.0,1467.0,1195.0,26655.0
1444.0,-763.0,-732.0,-381.0,-823.0,1449.0,1194.0,25740.0
1408.0,-754.0,-748.0,-399.0,-841.0,1431.0,1193.0,23936.0
1379.0,-744.0,-761.0,-412.0,-856.0,1415.0,1193.0,18063.0
1361.0,-740.0,-772.0,-423.0,-869.0,1402.0,1192.0,10720.0
1359.0,-746.0,-777.0,-426.0,-875.0,1398.0,1191.0,6413.0
1357.0,-754.0,-780.0,-427.0,-880.0,1395.0,1190.0,4878.0
1340.0,-764.0,-787.0,-433.0,-889.0,1386.0,1190.0,4379.0
1314.0,-769.0,-796.0,-439.0,-898.0,1376.0,1189.0,4842.0
1301.0,-770.0,-803.0,-444.0,-906.0,1371.0,1188.0,6228.0
1308.0,-767.0,-808.0,-446.0,-911.0,1364.0,1187.0,7172.0
1333.0,-759.0,-807.0,-444.0,-908.0,1359.0,1187.0,7660.0
1341.0,-747.0,-811.0,-446.0,-911.0,1353.0,1186.0,8170.0
1336.0,-737.0,-819.0,-452.0,-916.0,1344.0,1185.0,6761.0
1330.0,-731.0,-823.0,-455.0,-918.0,1335.0,1184.0,4136.0
1348.0,-733.0,-818.0,-447.0,-910.0,1341.0,1184.0,3403.0
1369.0,-739.0,-813.0,-439.0,-902.0,1346.0,1183.0,3479.0
1385.0,-746.0,-808.0,-432.0,-894.0,1369.0,1182.0,4311.0
1392.0,-751.0,-805.0,-427.0,-889.0,1398.0,1181.0,6244.0
1387.0,-752.0,-805.0,-427.0,-889.0,1406.0,1181.0,9592.0
1380.0,-744.0,-806.0,-430.0,-891.0,1399.0,1180.0,13147.0
1375.0,-729.0,-805.0,-433.0,-895.0,1384.0,1179.0,16597.0
1379.0,-716.0,-803.0,-437.0,-900.0,1372.0,1178.0,20260.0
1377.0,-705.0,-796.0,-440.0,-904.0,1362.0,1178.0,22717.0
1375.0,-701.0,-788.0,-443.0,-908.0,1354.0,1177.0,23964.0
1387.0,-705.0,-774.0,-440.0,-905.0,1355.0,1176.0,26719.0
1398.0,-715.0,-761.0,-435.0,-900.0,1351.0,1175.0,29714.0
1406.0,-725.0,-744.0,-430.0,-896.0,1350.0,1175.0,31807.0
1407.0,-733.0,-724.0,-426.0,-893.0,1347.0,1174.0,-32732.0
1410.0,-735.0,-710.0,-422.0,-893.0,1344.0,1173.0,-31691.0
1411.0,-727.0,-702.0,-425.0,-897.0,1344.0,1173.0,-31136.0
1413.0,-715.0,-696.0,-426.0,-902.0,1343.0,1172.0,-31752.0
1419.0,-702.0,-692.0,-428.0,-908.0,1339.0,1171.0,30075.0
1428.0,-690.0,-687.0,-427.0,-911.0,1337.0,1170.0,31223.0
1437.0,-686.0,-681.0,-424.0,-912.0,1336.0,1170.0,-32086.0
1438.0,-685.0,-674.0,-420.0,-913.0,1330.0,1169.0,32353.0
1441.0,-689.0,-666.0,-416.0,-913.0,1324.0,1168.0,31843.0
1447.0,-697.0,-660.0,-411.0,-913.0,1321.0,1167.0,-32469.0
1451.0,-704.0,-654.0,-408.0,-916.0,1317.0,1167.0,-31720.0
1442.0,-701.0,-647.0,-406.0,-916.0,1314.0,1166.0,-29382.0
1426.0,-689.0,-644.0,-408.0,-918.0,1311.0,1165.0,-25995.0
1403.0,-679.0,-651.0,-420.0,-931.0,1296.0,1164.0,-22508.0
1391.0,-664.0,-653.0,-427.0,-940.0,1280.0,1164.0,-19983.0
1383.0,-652.0,-654.0,-434.0,-951.0,1263.0,1163.0,-22015.0
1373.0,-649.0,-656.0,-439.0,-961.0,1250.0,1162.0,-31619.0
1360.0,-650.0,-655.0,-441.0,-964.0,1246.0,1161.0,25226.0
1348.0,-656.0,-654.0,-439.0,-963.0,1252.0,1161.0,19402.0
1332.0,-661.0,-650.0,-437.0,-961.0,1266.0,1160.0,13978.0
1311.0,-669.0,-651.0,-439.0,-964.0,1277.0,1159.0,9435.0
1301.0,-678.0,-654.0,-445.0,-970.0,1285.0,1159.0,5991.0
1293.0,-680.0,-660.0,-455.0,-981.0,1286.0,1158.0,3245.0
1274.0,-673.0,-670.0,-466.0,-993.0,1282.0,1157.0,606.0
1255.0,-662.0,-681.0,-478.0,-1007.0,1269.0,1156.0,-1641.0
1242.0,-652.0,-688.0,-485.0,-1016.0,1263.0,1156.0,-3372.0
1227.0,-648.0,-691.0,-487.0,-1019.0,1272.0,1155.0,-4636.0
1220.0,-655.0,-693.0,-486.0,-1019.0,1284.0,1154.0,-5748.0
1217.0,-666.0,-692.0,-484.0,-1019.0,1295.0,1153.0,-6550.0
1210.0,-677.0,-690.0,-484.0,-1018.0,1301.0,1153.0,-7226.0
1200.0,-687.0,-691.0,-486.0,-1017.0,1305.0,1152.0,-7911.0
1191.0,-691.0,-693.0,-489.0,-1018.0,1304.0,1151.0,-8521.0
1206.0,-692.0,-693.0,-490.0,-1020.0,1302.0,1151.0,-8951.0
1219.0,-689.0,-696.0,-496.0,-1025.0,1296.0,1150.0,-9289.0
1209.0,-681.0,-705.0,-510.0,-1032.0,1289.0,1149.0,-9532.0
1197.0,-676.0,-714.0,-526.0,-1043.0,1282.0,1148.0,-9682.0
1178.0,-676.0,-722.0,-536.0,-1048.0,1285.0,1148.0,-9800.0
1160.0,-689.0,-733.0,-548.0,-1051.0,1297.0,1147.0,-9888.0
1166.0,-703.0,-731.0,-548.0,-1046.0,1310.0,1146.0,-9932.0
1210.0,-718.0,-716.0,-534.0,-1027.0,1333.0,1146.0,-9955.0
1266.0,-738.0,-701.0,-519.0,-1008.0,1355.0,1145.0,-9969.0
1325.0,-746.0,-683.0,-502.0,-986.0,1379.0,1144.0,-9953.0
1392.0,-745.0,-664.0,-485.0,-965.0,1404.0,1143.0,-9935.0
1439.0,-742.0,-655.0,-476.0,-953.0,1420.0,1143.0,-9920.0
1490.0,-738.0,-646.0,-466.0,-941.0,1433.0,1142.0,-9894.0
1563.0,-733.0,-627.0,-449.0,-921.0,1453.0,1141.0,-9873.0
1687.0,-734.0,-589.0,-411.0,-881.0,1494.0,1141.0,-9842.0
1819.0,-739.0,-545.0,-367.0,-836.0,1540.0,1140.0,-9812.0
1988.0,-751.0,-488.0,-311.0,-778.0,1597.0,1139.0,-9756.0
2256.0,-764.0,-399.0,-222.0,-687.0,1686.0,1138.0,-9675.0
2443.0,-776.0,-338.0,-160.0,-624.0,1750.0,1138.0,-9586.0
2636.0,-780.0,-276.0,-96.0,-560.0,1817.0,1137.0,-9488.0
2874.0,-778.0,-200.0,-20.0,-483.0,1893.0,1136.0,-9377.0
3076.0,-775.0,-139.0,40.0,-420.0,1954.0,1135.0,-9276.0
3245.0,-771.0,-91.0,90.0,-372.0,1999.0,1135.0,-9191.0
3425.0,-765.0,-38.0,143.0,-321.0,2051.0,1134.0,-9110.0
3614.0,-763.0,21.0,207.0,-250.0,2119.0,1133.0,-9031.0
3781.0,-769.0,74.0,263.0,-192.0,2178.0,1133.0,-8962.0
3971.0,-779.0,137.0,326.0,-127.0,2246.0,1132.0,-8885.0
4203.0,-789.0,216.0,407.0,-42.0,2335.0,1131.0,-8795.0
4280.0,-798.0,280.0,475.0,30.0,2413.0,1131.0,-8700.0
4345.0,-800.0,322.0,519.0,79.0,2465.0,1130.0,-8612.0
4506.0,-794.0,392.0,592.0,155.0,2541.0,1129.0,-8508.0
4705.0,-784.0,472.0,675.0,240.0,2623.0,1128.0,-8401.0
4781.0,-773.0,511.0,717.0,284.0,2663.0,1128.0,-8318.0
4893.0,-767.0,561.0,768.0,336.0,2711.0,1127.0,-8235.0
5090.0,-769.0,639.0,850.0,418.0,2790.0,1126.0,-8146.0
5305.0,-776.0,728.0,939.0,510.0,2878.0,1126.0,-8055.0
5503.0,-787.0,815.0,1028.0,600.0,2966.0,1125.0,-7969.0
5664.0,-798.0,891.0,1105.0,678.0,3044.0,1124.0,-7874.0
5832.0,-809.0,968.0,1183.0,758.0,3123.0,1123.0,-7768.0
6027.0,-809.0,1056.0,1273.0,849.0,3213.0,1123.0,-7662.0
6203.0,-800.0,1138.0,1357.0,934.0,3298.0,1122.0,-7556.0
6360.0,-789.0,1210.0,1430.0,1008.0,3375.0,1121.0,-7451.0
6504.0,-779.0,1276.0,1497.0,1076.0,3447.0,1121.0,-7350.0
6629.0,-771.0,1335.0,1557.0,1137.0,3512.0,1120.0,-7251.0
6666.0,-765.0,1372.0,1594.0,1176.0,3554.0,1119.0,-7173.0
6554.0,-764.0,1361.0,1585.0,1167.0,3546.0,1118.0,-7127.0
6569.0,-771.0,1391.0,1617.0,1200.0,3581.0,1118.0,-7054.0
6759.0,-785.0,1479.0,1706.0,1290.0,3673.0,1117.0,-6953.0
6919.0,-796.0,1558.0,1786.0,1372.0,3756.0,1116.0,-6852.0
7008.0,-797.0,1615.0,1844.0,1430.0,3814.0,1116.0,-6762.0
7095.0,-792.0,1668.0,1897.0,1484.0,3867.0,1115.0,-6669.0
7202.0,-787.0,1725.0,1955.0,1543.0,3926.0,1114.0,-6578.0
7313.0,-776.0,1788.0,2017.0,1606.0,3993.0,1114.0,-6479.0
7418.0,-765.0,1849.0,2078.0,1668.0,4060.0,1113.0,-6376.0
7497.0,-762.0,1903.0,2132.0,1724.0,4120.0,1112.0,-6276.0
7552.0,-766.0,1951.0,2179.0,1772.0,4125.0,1111.0,-6178.0
7555.0,-771.0,1986.0,2214.0,1807.0,4115.0,1111.0,-6099.0
7569.0,-778.0,2026.0,2253.0,1846.0,4109.0,1110.0,-6020.0
7606.0,-785.0,2072.0,2297.0,1892.0,4108.0,1109.0,-5942.0
7646.0,-787.0,2117.0,2341.0,1937.0,4104.0,1109.0,-5854.0
7667.0,-783.0,2153.0,2376.0,1973.0,4093.0,1108.0,-5765.0
7697.0,-777.0,2190.0,2412.0,2009.0,4082.0,1107.0,-5677.0
7719.0,-767.0,2225.0,2444.0,2043.0,4068.0,1107.0,-5595.0
7737.0,-758.0,2259.0,2477.0,2077.0,4055.0,1106.0,-5518.0
7741.0,-759.0,2288.0,2505.0,2106.0,4036.0,1105.0,-5445.0
7707.0,-768.0,2306.0,2522.0,2124.0,4005.0,1105.0,-5378.0
7631.0,-780.0,2312.0,2528.0,2131.0,3963.0,1104.0,-5322.0
7669.0,-792.0,2357.0,2573.0,2176.0,3961.0,1103.0,-5236.0
7729.0,-800.0,2410.0,2626.0,2229.0,3966.0,1102.0,-5146.0
7776.0,-804.0,2458.0,2672.0,2277.0,3965.0,1102.0,-5061.0
7796.0,-801.0,2494.0,2708.0,2312.0,3953.0,1101.0,-4981.0
7801.0,-794.0,2523.0,2736.0,2342.0,3935.0,1100.0,-4906.0
7936.0,-787.0,2596.0,2809.0,2415.0,3962.0,1100.0,-4802.0
8010.0,-778.0,2650.0,2863.0,2470.0,3969.0,1099.0,-4710.0
8113.0,-776.0,2718.0,2930.0,2537.0,3986.0,1098.0,-4642.0
8214.0,-779.0,2786.0,2997.0,2605.0,4005.0,1098.0,-4592.0
8292.0,-785.0,2849.0,3059.0,2667.0,4018.0,1097.0,-4525.0
8361.0,-794.0,2910.0,3119.0,2728.0,4029.0,1096.0,-4450.0
8419.0,-802.0,2966.0,3175.0,2784.0,4035.0,1096.0,-4378.0
8462.0,-807.0,3015.0,3223.0,2833.0,4034.0,1095.0,-4313.0
8486.0,-804.0,3056.0,3262.0,2873.0,4024.0,1094.0,-4248.0
8583.0,-799.0,3119.0,3325.0,2935.0,4037.0,1093.0,-4169.0
8721.0,-791.0,3196.0,3401.0,3012.0,4065.0,1093.0,-4080.0
8855.0,-784.0,3271.0,3476.0,3088.0,4090.0,1092.0,-3986.0
8980.0,-782.0,3344.0,3549.0,3162.0,4114.0,1091.0,-3893.0
9108.0,-785.0,3423.0,3628.0,3241.0,4142.0,1091.0,-3791.0
9191.0,-792.0,3489.0,3693.0,3307.0,4158.0,1090.0,-3697.0
9307.0,-801.0,3567.0,3770.0,3384.0,4184.0,1089.0,-3596.0
9343.0,-808.0,3619.0,3822.0,3438.0,4187.0,1089.0,-3516.0
9206.0,-810.0,3612.0,3814.0,3430.0,4128.0,1088.0,-3487.0
9096.0,-805.0,3610.0,3811.0,3427.0,4075.0,1087.0,-3455.0
9245.0,-796.0,3695.0,3896.0,3513.0,4110.0,1087.0,-3368.0
9434.0,-784.0,3794.0,3994.0,3611.0,4158.0,1086.0,-3275.0
9584.0,-772.0,3879.0,4079.0,3696.0,4192.0,1085.0,-3183.0
9738.0,-768.0,3969.0,4167.0,3786.0,4230.0,1085.0,-3085.0
9883.0,-774.0,4053.0,4182.0,3871.0,4264.0,1084.0,-2992.0
10005.0,-783.0,4134.0,4213.0,3952.0,4292.0,1083.0,-2897.0
10091.0,-787.0,4142.0,4237.0,4027.0,4314.0,1082.0,-2815.0
10201.0,-792.0,4172.0,4267.0,4108.0,4343.0,1082.0,-2724.0
10316.0,-791.0,4203.0,4296.0,4126.0,4371.0,1081.0,-2635.0
10342.0,-783.0,4202.0,4294.0,4126.0,4367.0,1080.0,-2568.0
10175.0,-774.0,4134.0,4225.0,4059.0,4297.0,1080.0,-2547.0
9833.0,-764.0,4006.0,4096.0,3932.0,4166.0,1079.0,-2573.0
9558.0,-758.0,3899.0,3987.0,3825.0,4056.0,1078.0,-2595.0
9407.0,-757.0,3836.0,3923.0,3764.0,3991.0,1078.0,-2589.0
9465.0,-765.0,3844.0,3931.0,3774.0,3997.0,1077.0,-2537.0
9518.0,-771.0,3856.0,3942.0,3786.0,4006.0,1076.0,-2481.0
9656.0,-777.0,3898.0,3984.0,3828.0,4045.0,1076.0,-2394.0
9809.0,-786.0,3942.0,4027.0,3873.0,4086.0,1075.0,-2307.0
9836.0,-792.0,3941.0,4026.0,3873.0,4083.0,1074.0,-2247.0
9679.0,-787.0,3878.0,3962.0,3811.0,4019.0,1074.0,-2231.0
9404.0,-775.0,3774.0,3856.0,3707.0,3915.0,1073.0,-2247.0
9113.0,-765.0,3664.0,3745.0,3599.0,3806.0,1072.0,-2274.0
8860.0,-755.0,3569.0,3650.0,3506.0,3711.0,1072.0,-2294.0
8627.0,-754.0,3482.0,3561.0,3419.0,3623.0,1071.0,-2314.0
8398.0,-758.0,3397.0,3475.0,3335.0,3538.0,1070.0,-2335.0
8168.0,-763.0,3316.0,3395.0,3256.0,3456.0,1070.0,-2353.0
7950.0,-772.0,3239.0,3317.0,3181.0,3378.0,1069.0,-2371.0
7744.0,-780.0,3165.0,3241.0,3107.0,3301.0,1068.0,-2388.0
7513.0,-781.0,3082.0,3157.0,3024.0,3216.0,1068.0,-2414.0
7259.0,-774.0,2988.0,3062.0,2931.0,3121.0,1067.0,-2442.0
7020.0,-767.0,2897.0,2970.0,2840.0,3029.0,1066.0,-2469.0
6786.0,-760.0,2809.0,2881.0,2752.0,2938.0,1066.0,-2499.0
6551.0,-752.0,2722.0,2793.0,2667.0,2850.0,1065.0,-2528.0
6310.0,-753.0,2631.0,2702.0,2576.0,2757.0,1064.0,-2562.0
6080.0,-758.0,2546.0,2616.0,2492.0,2671.0,1064.0,-2594.0
5851.0,-765.0,2464.0,2533.0,2411.0,2588.0,1063.0,-2622.0
5625.0,-777.0,2384.0,2450.0,2331.0,2505.0,1062.0,-2651.0
5406.0,-791.0,2305.0,2370.0,2253.0,2424.0,1062.0,-2676.0
5180.0,-797.0,2225.0,2289.0,2172.0,2341.0,1061.0,-2706.0
4943.0,-790.0,2140.0,2203.0,2087.0,2253.0,1060.0,-2732.0
4709.0,-781.0,2054.0,2115.0,2036.0,2164.0,1060.0,-2763.0
4484.0,-770.0,2007.0,2031.0,1977.0,2080.0,1059.0,-2794.0
4276.0,-761.0,1952.0,1992.0,1922.0,2032.0,1058.0,-2822.0
4084.0,-760.0,1902.0,1941.0,1872.0,1981.0,1058.0,-2847.0
3901.0,-767.0,1857.0,1895.0,1826.0,1936.0,1057.0,-2867.0
3720.0,-775.0,1816.0,1854.0,1785.0,1893.0,1056.0,-2887.0
3540.0,-782.0,1777.0,1814.0,1743.0,1851.0,1056.0,-2903.0
3367.0,-791.0,1735.0,1771.0,1701.0,1807.0,1055.0,-2920.0
3197.0,-792.0,1694.0,1729.0,1660.0,1766.0,1054.0,-2933.0
3033.0,-784.0,1651.0,1686.0,1617.0,1722.0,1054.0,-2944.0
2873.0,-773.0,1607.0,1641.0,1572.0,1678.0,1053.0,-2953.0
2714.0,-763.0,1560.0,1594.0,1525.0,1631.0,1052.0,-2969.0
2555.0,-754.0,1512.0,1547.0,1479.0,1585.0,1052.0,-2984.0
2400.0,-746.0,1471.0,1505.0,1438.0,1544.0,1051.0,-2996.0
2259.0,-747.0,1436.0,1468.0,1401.0,1507.0,1050.0,-3006.0
2124.0,-756.0,1400.0,1432.0,1366.0,1471.0,1050.0,-3014.0
1985.0,-764.0,1365.0,1396.0,1330.0,1435.0,1049.0,-3022.0
1982.0,-771.0,1330.0,1360.0,1294.0,1398.0,1048.0,-3029.0
1875.0,-770.0,1295.0,1326.0,1259.0,1362.0,1048.0,-3035.0
1773.0,-767.0,1256.0,1288.0,1222.0,1324.0,1047.0,-3041.0
1663.0,-760.0,1216.0,1248.0,1181.0,1283.0,1046.0,-3050.0
1553.0,-752.0,1174.0,1206.0,1138.0,1239.0,1046.0,-3057.0
1484.0,-744.0,1145.0,1177.0,1108.0,1208.0,1045.0,-3057.0
1509.0,-739.0,1152.0,1183.0,1114.0,1213.0,1044.0,-3030.0
1536.0,-742.0,1161.0,1194.0,1125.0,1223.0,1044.0,-2994.0
1523.0,-745.0,1160.0,1191.0,1122.0,1220.0,1043.0,-2966.0
1557.0,-754.0,1172.0,1203.0,1133.0,1230.0,1042.0,-2927.0
1592.0,-762.0,1187.0,1218.0,1147.0,1243.0,1042.0,-2884.0
1575.0,-765.0,1183.0,1213.0,1142.0,1238.0,1041.0,-2856.0
1456.0,-758.0,1142.0,1173.0,1101.0,1196.0,1040.0,-2855.0
1357.0,-748.0,1107.0,1136.0,1064.0,1159.0,1040.0,-2847.0
1370.0,-737.0,1109.0,1137.0,1065.0,1162.0,1039.0,-2819.0
1340.0,-729.0,1095.0,1122.0,1051.0,1147.0,1038.0,-2802.0
1267.0,-724.0,1072.0,1098.0,1027.0,1123.0,1038.0,-2789.0
1235.0,-730.0,1061.0,1088.0,1016.0,1112.0,1037.0,-2771.0
1153.0,-740.0,1034.0,1060.0,988.0,1083.0,1037.0,-2763.0
1198.0,-748.0,1053.0,1079.0,1007.0,1102.0,1036.0,-2718.0
1479.0,-757.0,1152.0,1178.0,1106.0,1199.0,1035.0,-2616.0
1659.0,-760.0,1216.0,1241.0,1169.0,1261.0,1035.0,-2537.0
1649.0,-753.0,1215.0,1238.0,1166.0,1256.0,1034.0,-2497.0
1626.0,-744.0,1204.0,1226.0,1154.0,1243.0,1033.0,-2465.0
1595.0,-737.0,1189.0,1210.0,1137.0,1225.0,1033.0,-2444.0
1466.0,-730.0,1141.0,1161.0,1088.0,1173.0,1032.0,-2451.0
1256.0,-728.0,1070.0,1089.0,1015.0,1097.0,1031.0,-2483.0
1039.0,-727.0,1001.0,1019.0,945.0,1025.0,1031.0,-2509.0
886.0,-732.0,956.0,972.0,897.0,978.0,1030.0,-2524.0
795.0,-740.0,931.0,945.0,871.0,955.0,1029.0,-2521.0
804.0,-745.0,940.0,952.0,879.0,965.0,1029.0,-2488.0
894.0,-744.0,974.0,985.0,912.0,997.0,1028.0,-2436.0
1052.0,-740.0,1025.0,1035.0,962.0,1048.0,1027.0,-2367.0
1269.0,-738.0,1092.0,1101.0,1030.0,1116.0,1027.0,-2286.0
1468.0,-731.0,1154.0,1165.0,1094.0,1180.0,1026.0,-2206.0
1676.0,-722.0,1220.0,1231.0,1160.0,1247.0,1026.0,-2118.0
1999.0,-720.0,1328.0,1338.0,1267.0,1354.0,1025.0,-2001.0
2281.0,-725.0,1421.0,1430.0,1360.0,1447.0,1024.0,-1820.0
2549.0,-736.0,1508.0,1516.0,1447.0,1534.0,1024.0,-1738.0
2824.0,-748.0,1599.0,1606.0,1538.0,1624.0,1023.0,-1656.0
3086.0,-754.0,1689.0,1696.0,1628.0,1715.0,1022.0,-1576.0
3315.0,-756.0,1767.0,1774.0,1706.0,1793.0,1022.0,-1503.0
3528.0,-754.0,1835.0,1842.0,1775.0,1861.0,1021.0,-1432.0
3819.0,-750.0,1927.0,1933.0,1867.0,1952.0,1020.0,-1345.0
4202.0,-737.0,2055.0,2058.0,1991.0,2077.0,1020.0,-1236.0
4347.0,-727.0,2157.0,2160.0,2092.0,2177.0,1019.0,-1148.0
4562.0,-722.0,2244.0,2246.0,2179.0,2264.0,1018.0,-1069.0
4774.0,-723.0,2332.0,2333.0,2267.0,2351.0,1018.0,-989.0
4978.0,-730.0,2421.0,2421.0,2355.0,2438.0,1017.0,-910.0
5166.0,-736.0,2506.0,2506.0,2439.0,2523.0,1017.0,-839.0
5361.0,-744.0,2593.0,2593.0,2526.0,2608.0,1016.0,-767.0
5657.0,-747.0,2715.0,2715.0,2647.0,2729.0,1015.0,-670.0
5959.0,-744.0,2838.0,2838.0,2769.0,2850.0,1015.0,-568.0
6224.0,-738.0,2946.0,2946.0,2877.0,2956.0,1014.0,-477.0
6450.0,-724.0,3045.0,3046.0,2977.0,3056.0,1013.0,-392.0
8246.0,-734.0,3819.0,3825.0,3754.0,3827.0,1010.0,122.0
8446.0,-737.0,3918.0,3925.0,3853.0,3926.0,1009.0,183.0
8827.0,-732.0,4079.0,4086.0,4016.0,4088.0,1008.0,285.0
9244.0,-724.0,4253.0,4261.0,4191.0,4263.0,1008.0,398.0
9650.0,-718.0,4341.0,4346.0,4282.0,4355.0,1007.0,506.0
10040.0,-709.0,4453.0,4457.0,4394.0,4464.0,1006.0,615.0
10384.0,-704.0,4553.0,4558.0,4496.0,4562.0,1006.0,699.0
10655.0,-703.0,4632.0,4636.0,4573.0,4635.0,1005.0,737.0
10954.0,-705.0,4723.0,4725.0,4663.0,4721.0,1004.0,785.0
11337.0,-714.0,4841.0,4843.0,4782.0,4838.0,1004.0,882.0
11747.0,-724.0,4969.0,4971.0,4910.0,4965.0,1003.0,1007.0
12108.0,-731.0,5078.0,5079.0,5020.0,5076.0,1003.0,1108.0
12267.0,-728.0,5118.0,5119.0,5060.0,5119.0,1002.0,1149.0
12194.0,-724.0,5077.0,5077.0,5021.0,5079.0,1001.0,1114.0
12393.0,-716.0,5126.0,5125.0,5070.0,5126.0,1001.0,1143.0
12758.0,-707.0,5232.0,5234.0,5178.0,5231.0,1000.0,1213.0
12940.0,-706.0,5278.0,5281.0,5225.0,5276.0,999.0,1249.0
12952.0,-708.0,5271.0,5275.0,5219.0,5270.0,999.0,1238.0
12816.0,-715.0,5217.0,5222.0,5166.0,5216.0,998.0,1063.0
12574.0,-722.0,5126.0,5133.0,5076.0,5124.0,998.0,698.0
12274.0,-731.0,5015.0,5022.0,4964.0,5010.0,997.0,340.0
11958.0,-739.0,4897.0,4905.0,4847.0,4890.0,996.0,-12.0
11653.0,-739.0,4782.0,4790.0,4731.0,4773.0,996.0,-326.0
11357.0,-729.0,4669.0,4678.0,4618.0,4657.0,995.0,-594.0
11072.0,-720.0,4559.0,4569.0,4509.0,4543.0,994.0,-832.0
10808.0,-713.0,4454.0,4464.0,4404.0,4436.0,994.0,-1052.0
10542.0,-710.0,4352.0,4362.0,4301.0,4335.0,993.0,-1270.0
10272.0,-711.0,4253.0,4263.0,4203.0,4239.0,993.0,-1473.0
10006.0,-718.0,4155.0,4166.0,4107.0,4144.0,992.0,-1659.0
9740.0,-725.0,4058.0,4071.0,4012.0,4051.0,991.0,-1836.0
9465.0,-731.0,3959.0,3972.0,3916.0,3954.0,991.0,-2015.0
9188.0,-730.0,3862.0,3875.0,3819.0,3857.0,990.0,-2194.0
8908.0,-715.0,3769.0,3782.0,3726.0,3763.0,989.0,-2362.0
8638.0,-696.0,3679.0,3696.0,3638.0,3672.0,989.0,-2527.0
8366.0,-677.0,3588.0,3608.0,3549.0,3580.0,988.0,-2694.0
8083.0,-657.0,3494.0,3517.0,3456.0,3484.0,988.0,-2860.0
7796.0,-646.0,3398.0,3423.0,3360.0,3385.0,987.0,-3030.0
7517.0,-652.0,3294.0,3321.0,3260.0,3283.0,986.0,-3206.0
7243.0,-668.0,3189.0,3218.0,3158.0,3178.0,986.0,-3387.0
6964.0,-698.0,3080.0,3112.0,3050.0,3066.0,985.0,-3579.0
6693.0,-731.0,2974.0,3011.0,2946.0,2958.0,984.0,-3771.0
6426.0,-761.0,2866.0,2911.0,2842.0,2850.0,984.0,-3957.0
6139.0,-786.0,2742.0,2795.0,2725.0,2732.0,983.0,-4136.0
5855.0,-817.0,2612.0,2677.0,2606.0,2614.0,983.0,-4350.0
5576.0,-855.0,2475.0,2553.0,2486.0,2495.0,982.0,-4474.0
5266.0,-889.0,2325.0,2414.0,2353.0,2363.0,981.0,-4596.0
4908.0,-923.0,2158.0,2252.0,2200.0,2209.0,981.0,-4728.0
4511.0,-965.0,1983.0,2076.0,2028.0,2035.0,980.0,-4876.0
4075.0,-1006.0,1848.0,1940.0,1885.0,1889.0,979.0,-5047.0
3565.0,-1027.0,1665.0,1742.0,1696.0,1702.0,979.0,-5244.0
2853.0,-1036.0,1412.0,1467.0,1439.0,1454.0,978.0,-5530.0
2113.0,-1020.0,1161.0,1189.0,1179.0,1206.0,978.0,-6229.0
1527.0,-990.0,972.0,976.0,977.0,1009.0,977.0,-7074.0
540.0,-941.0,607.0,584.0,592.0,626.0,976.0,-7749.0
-700.0,-898.0,199.0,150.0,165.0,201.0,976.0,-8302.0
-1496.0,-875.0,-67.0,-133.0,-112.0,-75.0,975.0,-8669.0
-1908.0,-861.0,-200.0,-270.0,-253.0,-217.0,975.0,-8873.0
-2163.0,-861.0,-277.0,-342.0,-331.0,-297.0,974.0,-8996.0
-2840.0,-873.0,-497.0,-556.0,-549.0,-518.0,973.0,-9211.0
-3528.0,-880.0,-719.0,-771.0,-767.0,-739.0,973.0,-9408.0
-4157.0,-875.0,-914.0,-961.0,-958.0,-933.0,972.0,-9570.0
-4624.0,-867.0,-1035.0,-1075.0,-1078.0,-1057.0,972.0,-9659.0
-4495.0,-854.0,-994.0,-1025.0,-1034.0,-1018.0,971.0,-9599.0
-4121.0,-835.0,-867.0,-890.0,-905.0,-895.0,970.0,-9453.0
-3940.0,-816.0,-810.0,-826.0,-847.0,-841.0,970.0,-9349.0
-3841.0,-802.0,-783.0,-793.0,-818.0,-815.0,969.0,-9263.0
-3771.0,-797.0,-768.0,-771.0,-800.0,-800.0,968.0,-9180.0
-3742.0,-798.0,-764.0,-760.0,-792.0,-795.0,968.0,-9094.0
-3742.0,-800.0,-766.0,-756.0,-791.0,-796.0,967.0,-9016.0
-3768.0,-802.0,-776.0,-762.0,-800.0,-807.0,967.0,-8945.0
-3809.0,-801.0,-791.0,-773.0,-814.0,-824.0,966.0,-8878.0
-3860.0,-794.0,-813.0,-793.0,-836.0,-849.0,965.0,-8826.0
-4015.0,-782.0,-875.0,-856.0,-899.0,-915.0,965.0,-8818.0
-4211.0,-771.0,-955.0,-937.0,-980.0,-1000.0,964.0,-8820.0
-4203.0,-756.0,-970.0,-952.0,-993.0,-1016.0,964.0,-8753.0
-4144.0,-740.0,-966.0,-948.0,-988.0,-1013.0,963.0,-8659.0
-4108.0,-727.0,-966.0,-949.0,-989.0,-1015.0,962.0,-8574.0
-4091.0,-721.0,-974.0,-957.0,-995.0,-1022.0,962.0,-8508.0
-4076.0,-723.0,-981.0,-963.0,-1001.0,-1027.0,961.0,-8453.0
-4068.0,-731.0,-991.0,-973.0,-1007.0,-1033.0,961.0,-8403.0
-4081.0,-738.0,-1009.0,-991.0,-1025.0,-1052.0,960.0,-8361.0
-4129.0,-737.0,-1041.0,-1024.0,-1055.0,-1084.0,959.0,-8334.0
-4115.0,-734.0,-1054.0,-1038.0,-1068.0,-1099.0,959.0,-8289.0
-4086.0,-731.0,-1067.0,-1050.0,-1081.0,-1114.0,958.0,-8240.0
-4113.0,-726.0,-1100.0,-1082.0,-1113.0,-1147.0,958.0,-8207.0
-4178.0,-717.0,-1141.0,-1125.0,-1154.0,-1189.0,957.0,-8184.0
-4234.0,-713.0,-1177.0,-1162.0,-1190.0,-1225.0,956.0,-8161.0
-4420.0,-717.0,-1256.0,-1242.0,-1269.0,-1305.0,956.0,-8177.0
-4904.0,-724.0,-1434.0,-1421.0,-1447.0,-1485.0,955.0,-8282.0
-5117.0,-731.0,-1521.0,-1510.0,-1535.0,-1575.0,955.0,-8307.0
-5056.0,-735.0,-1515.0,-1504.0,-1527.0,-1567.0,954.0,-8251.0
-5106.0,-737.0,-1551.0,-1539.0,-1562.0,-1603.0,953.0,-8223.0
-4822.0,-732.0,-1475.0,-1464.0,-1486.0,-1529.0,953.0,-8094.0
-4494.0,-727.0,-1388.0,-1376.0,-1398.0,-1443.0,952.0,-7950.0
-4249.0,-719.0,-1328.0,-1315.0,-1337.0,-1383.0,952.0,-7830.0
-4039.0,-709.0,-1277.0,-1264.0,-1284.0,-1331.0,951.0,-7717.0
-3917.0,-705.0,-1255.0,-1240.0,-1260.0,-1306.0,950.0,-7630.0
-3866.0,-703.0,-1249.0,-1233.0,-1253.0,-1298.0,950.0,-7560.0
-3809.0,-709.0,-1242.0,-1223.0,-1243.0,-1286.0,949.0,-7491.0
-3742.0,-714.0,-1229.0,-1210.0,-1229.0,-1272.0,949.0,-7416.0
-3750.0,-722.0,-1242.0,-1224.0,-1244.0,-1288.0,948.0,-7367.0
-3649.0,-726.0,-1222.0,-1203.0,-1224.0,-1267.0,947.0,-7287.0
-3625.0,-725.0,-1231.0,-1211.0,-1233.0,-1276.0,947.0,-7233.0
-3572.0,-718.0,-1231.0,-1211.0,-1232.0,-1276.0,946.0,-7169.0
-3515.0,-708.0,-1230.0,-1208.0,-1229.0,-1273.0,946.0,-7103.0
-3510.0,-698.0,-1245.0,-1222.0,-1243.0,-1286.0,945.0,-7054.0
-3465.0,-698.0,-1247.0,-1223.0,-1245.0,-1287.0,944.0,-6994.0
-3404.0,-700.0,-1239.0,-1216.0,-1238.0,-1281.0,944.0,-6925.0
-3361.0,-705.0,-1234.0,-1210.0,-1233.0,-1277.0,943.0,-6856.0
-3367.0,-715.0,-1247.0,-1222.0,-1244.0,-1290.0,943.0,-6806.0
-3380.0,-725.0,-1264.0,-1235.0,-1256.0,-1304.0,942.0,-6759.0
-3318.0,-728.0,-1257.0,-1224.0,-1243.0,-1293.0,941.0,-6691.0
-3300.0,-725.0,-1272.0,-1230.0,-1248.0,-1299.0,941.0,-6631.0
-3631.0,-716.0,-1403.0,-1360.0,-1376.0,-1428.0,940.0,-6677.0
-3811.0,-709.0,-1484.0,-1443.0,-1458.0,-1513.0,940.0,-6688.0
-3673.0,-703.0,-1457.0,-1419.0,-1435.0,-1491.0,939.0,-6596.0
-3449.0,-702.0,-1401.0,-1361.0,-1380.0,-1437.0,938.0,-6467.0
-3273.0,-704.0,-1361.0,-1314.0,-1336.0,-1392.0,938.0,-6354.0
-3043.0,-708.0,-1299.0,-1243.0,-1266.0,-1318.0,937.0,-6225.0
-2814.0,-717.0,-1234.0,-1172.0,-1197.0,-1245.0,937.0,-6090.0
-2660.0,-721.0,-1191.0,-1127.0,-1155.0,-1199.0,936.0,-5971.0
-2517.0,-724.0,-1153.0,-1088.0,-1115.0,-1157.0,936.0,-5865.0
-2359.0,-725.0,-1109.0,-1045.0,-1070.0,-1113.0,935.0,-5764.0
-2159.0,-725.0,-1053.0,-992.0,-1016.0,-1060.0,934.0,-5648.0
-2096.0,-715.0,-1038.0,-981.0,-1007.0,-1052.0,934.0,-5569.0
-2082.0,-703.0,-1064.0,-1011.0,-1039.0,-1086.0,933.0,-5533.0
-2134.0,-699.0,-1079.0,-1026.0,-1056.0,-1104.0,933.0,-5487.0
-2002.0,-699.0,-1030.0,-978.0,-1008.0,-1058.0,932.0,-5386.0
-1849.0,-701.0,-970.0,-918.0,-949.0,-999.0,931.0,-5274.0
-1730.0,-707.0,-923.0,-871.0,-901.0,-952.0,931.0,-5175.0
-1659.0,-714.0,-893.0,-841.0,-871.0,-921.0,930.0,-5094.0
-1703.0,-715.0,-900.0,-850.0,-879.0,-930.0,930.0,-5050.0
-1793.0,-715.0,-926.0,-879.0,-907.0,-960.0,929.0,-5026.0
-1872.0,-711.0,-955.0,-910.0,-935.0,-990.0,928.0,-5003.0
-2005.0,-702.0,-1003.0,-959.0,-983.0,-1039.0,928.0,-4998.0
-2120.0,-694.0,-1047.0,-1003.0,-1027.0,-1084.0,927.0,-4989.0
-2268.0,-697.0,-1103.0,-1058.0,-1083.0,-1141.0,927.0,-4988.0
-2381.0,-709.0,-1146.0,-1101.0,-1126.0,-1184.0,926.0,-4975.0
-2527.0,-720.0,-1197.0,-1152.0,-1176.0,-1234.0,926.0,-4969.0
-2716.0,-732.0,-1259.0,-1214.0,-1237.0,-1294.0,925.0,-4975.0
-2905.0,-741.0,-1319.0,-1274.0,-1296.0,-1351.0,924.0,-4979.0
-3104.0,-742.0,-1381.0,-1337.0,-1358.0,-1411.0,924.0,-4988.0
-3293.0,-736.0,-1439.0,-1396.0,-1415.0,-1468.0,923.0,-4997.0
-3533.0,-724.0,-1515.0,-1472.0,-1490.0,-1545.0,923.0,-5020.0
-3810.0,-713.0,-1608.0,-1563.0,-1580.0,-1636.0,922.0,-5057.0
-4091.0,-703.0,-1704.0,-1656.0,-1672.0,-1729.0,922.0,-5097.0
-4332.0,-700.0,-1787.0,-1736.0,-1751.0,-1808.0,921.0,-5126.0
-4584.0,-706.0,-1859.0,-1805.0,-1819.0,-1877.0,920.0,-5145.0
-4751.0,-720.0,-1937.0,-1879.0,-1893.0,-1951.0,920.0,-5167.0
-4960.0,-731.0,-2024.0,-1964.0,-1978.0,-2036.0,919.0,-5198.0
-5173.0,-742.0,-2111.0,-2051.0,-2063.0,-2123.0,919.0,-5229.0
-5386.0,-746.0,-2200.0,-2138.0,-2151.0,-2211.0,918.0,-5260.0
-5594.0,-749.0,-2294.0,-2229.0,-2242.0,-2304.0,917.0,-5295.0
-5810.0,-746.0,-2393.0,-2326.0,-2339.0,-2401.0,917.0,-5334.0
-5998.0,-742.0,-2483.0,-2413.0,-2428.0,-2491.0,916.0,-5365.0
-6122.0,-738.0,-2552.0,-2480.0,-2496.0,-2558.0,916.0,-5375.0
-6249.0,-733.0,-2620.0,-2544.0,-2561.0,-2623.0,915.0,-5389.0
-6403.0,-735.0,-2698.0,-2619.0,-2637.0,-2701.0,915.0,-5410.0
-6610.0,-741.0,-2793.0,-2712.0,-2732.0,-2797.0,914.0,-5444.0
-6794.0,-750.0,-2879.0,-2794.0,-2817.0,-2882.0,913.0,-5470.0
-6918.0,-755.0,-2943.0,-2855.0,-2879.0,-2945.0,913.0,-5478.0
-7009.0,-757.0,-2998.0,-2908.0,-2932.0,-2995.0,912.0,-5479.0
-7127.0,-755.0,-3067.0,-2973.0,-2999.0,-3059.0,912.0,-5492.0
-7260.0,-753.0,-3142.0,-3044.0,-3071.0,-3130.0,911.0,-5510.0
-7430.0,-743.0,-3230.0,-3129.0,-3157.0,-3214.0,911.0,-5539.0
-7576.0,-736.0,-3313.0,-3211.0,-3239.0,-3296.0,910.0,-5560.0
-7687.0,-733.0,-3383.0,-3278.0,-3306.0,-3361.0,909.0,-5568.0
-7792.0,-735.0,-3448.0,-3342.0,-3370.0,-3424.0,909.0,-5575.0
-7734.0,-738.0,-3457.0,-3349.0,-3377.0,-3430.0,908.0,-5530.0
-7485.0,-742.0,-3401.0,-3291.0,-3319.0,-3370.0,908.0,-5423.0
-7177.0,-744.0,-3327.0,-3214.0,-3242.0,-3292.0,907.0,-5296.0
-6836.0,-745.0,-3241.0,-3126.0,-3155.0,-3203.0,907.0,-5158.0
-6478.0,-741.0,-3150.0,-3034.0,-3063.0,-3111.0,906.0,-5014.0
-6168.0,-732.0,-3075.0,-2958.0,-2987.0,-3037.0,905.0,-4886.0
-5844.0,-722.0,-2995.0,-2879.0,-2907.0,-2959.0,905.0,-4755.0
-5533.0,-711.0,-2917.0,-2802.0,-2830.0,-2882.0,904.0,-4631.0
-5271.0,-707.0,-2856.0,-2740.0,-2768.0,-2824.0,904.0,-4528.0
-4981.0,-708.0,-2783.0,-2666.0,-2695.0,-2753.0,903.0,-4414.0
-4661.0,-710.0,-2694.0,-2577.0,-2605.0,-2664.0,903.0,-4287.0
-4311.0,-711.0,-2592.0,-2472.0,-2501.0,-2559.0,902.0,-4146.0
-3999.0,-714.0,-2503.0,-2379.0,-2407.0,-2467.0,901.0,-4016.0
-3733.0,-712.0,-2426.0,-2301.0,-2327.0,-2387.0,901.0,-3900.0
-3559.0,-705.0,-2382.0,-2254.0,-2279.0,-2338.0,900.0,-3814.0
-3472.0,-694.0,-2366.0,-2237.0,-2263.0,-2320.0,900.0,-3763.0
-3141.0,-689.0,-2270.0,-2140.0,-2165.0,-2222.0,899.0,-3642.0
-2765.0,-687.0,-2158.0,-2026.0,-2053.0,-2109.0,899.0,-3507.0
-2474.0,-690.0,-2077.0,-1942.0,-1969.0,-2025.0,898.0,-3398.0
-2217.0,-697.0,-2006.0,-1868.0,-1896.0,-1952.0,897.0,-3302.0
-1958.0,-707.0,-1936.0,-1793.0,-1821.0,-1877.0,897.0,-3207.0
-1676.0,-715.0,-1875.0,-1728.0,-1757.0,-1813.0,896.0,-3123.0
-1557.0,-725.0,-1833.0,-1686.0,-1715.0,-1773.0,896.0,-3064.0
-1453.0,-730.0,-1798.0,-1652.0,-1680.0,-1740.0,895.0,-3013.0
-1365.0,-731.0,-1771.0,-1624.0,-1652.0,-1713.0,895.0,-2971.0
-1319.0,-727.0,-1757.0,-1609.0,-1638.0,-1700.0,894.0,-2940.0
-1297.0,-719.0,-1755.0,-1606.0,-1634.0,-1698.0,894.0,-2917.0
-1243.0,-714.0,-1742.0,-1593.0,-1621.0,-1686.0,893.0,-2889.0
-1208.0,-718.0,-1729.0,-1582.0,-1610.0,-1678.0,892.0,-2863.0
-1214.0,-722.0,-1727.0,-1582.0,-1610.0,-1679.0,892.0,-2843.0
-1196.0,-727.0,-1716.0,-1571.0,-1599.0,-1668.0,891.0,-2815.0
-1235.0,-734.0,-1722.0,-1577.0,-1606.0,-1672.0,891.0,-2805.0
-1318.0,-743.0,-1744.0,-1600.0,-1628.0,-1692.0,890.0,-2808.0
-1448.0,-746.0,-1783.0,-1639.0,-1666.0,-1727.0,890.0,-2830.0
-1561.0,-742.0,-1822.0,-1677.0,-1703.0,-1765.0,889.0,-2848.0
-1674.0,-733.0,-1863.0,-1718.0,-1744.0,-1806.0,888.0,-2871.0
-1814.0,-727.0,-1917.0,-1772.0,-1798.0,-1861.0,888.0,-2905.0
-1979.0,-722.0,-1980.0,-1834.0,-1860.0,-1924.0,887.0,-2948.0
-2165.0,-721.0,-2047.0,-1901.0,-1926.0,-1991.0,887.0,-2996.0
-2365.0,-726.0,-2119.0,-1970.0,-1997.0,-2061.0,886.0,-3051.0
-2502.0,-730.0,-2165.0,-2013.0,-2042.0,-2106.0,886.0,-3082.0
-2585.0,-735.0,-2187.0,-2036.0,-2065.0,-2129.0,885.0,-3091.0
-2672.0,-741.0,-2213.0,-2060.0,-2090.0,-2155.0,885.0,-3101.0
-2795.0,-744.0,-2256.0,-2100.0,-2130.0,-2194.0,884.0,-3122.0
-2958.0,-742.0,-2315.0,-2155.0,-2187.0,-2250.0,883.0,-3157.0
-3167.0,-728.0,-2388.0,-2224.0,-2256.0,-2319.0,883.0,-3203.0
-3370.0,-712.0,-2459.0,-2292.0,-2326.0,-2388.0,882.0,-3250.0
-3558.0,-696.0,-2526.0,-2355.0,-2389.0,-2451.0,882.0,-3291.0
-3772.0,-688.0,-2600.0,-2427.0,-2460.0,-2522.0,881.0,-3339.0
-4032.0,-686.0,-2689.0,-2512.0,-2546.0,-2607.0,881.0,-3402.0
-4277.0,-695.0,-2774.0,-2594.0,-2627.0,-2689.0,880.0,-3458.0
-4490.0,-708.0,-2843.0,-2658.0,-2691.0,-2755.0,880.0,-3497.0
-4541.0,-719.0,-2882.0,-2695.0,-2729.0,-2792.0,879.0,-3507.0
-4544.0,-725.0,-2905.0,-2716.0,-2750.0,-2814.0,878.0,-3501.0
-4527.0,-723.0,-2922.0,-2733.0,-2767.0,-2832.0,878.0,-3490.0
-4496.0,-717.0,-2939.0,-2748.0,-2783.0,-2849.0,877.0,-3477.0
-4463.0,-708.0,-2956.0,-2764.0,-2800.0,-2867.0,877.0,-3463.0
-4441.0,-695.0,-2972.0,-2777.0,-2813.0,-2881.0,876.0,-3447.0
-4440.0,-686.0,-2990.0,-2793.0,-2830.0,-2897.0,876.0,-3435.0
-4436.0,-684.0,-3006.0,-2807.0,-2845.0,-2912.0,875.0,-3421.0
-4439.0,-686.0,-3022.0,-2822.0,-2860.0,-2928.0,875.0,-3408.0
-4442.0,-691.0,-3039.0,-2838.0,-2876.0,-2945.0,874.0,-3397.0
-4469.0,-692.0,-3066.0,-2863.0,-2900.0,-2970.0,874.0,-3393.0
-4514.0,-689.0,-3099.0,-2895.0,-2931.0,-3003.0,873.0,-3393.0
-4546.0,-684.0,-3128.0,-2923.0,-2959.0,-3032.0,872.0,-3389.0
-4564.0,-677.0,-3154.0,-2947.0,-2983.0,-3056.0,872.0,-3383.0
-4583.0,-667.0,-3178.0,-2972.0,-3007.0,-3082.0,871.0,-3378.0
-4606.0,-655.0,-3201.0,-2997.0,-3032.0,-3109.0,871.0,-3376.0
-4686.0,-651.0,-3246.0,-3041.0,-3077.0,-3150.0,870.0,-3396.0
-4779.0,-653.0,-3306.0,-3093.0,-3132.0,-3193.0,870.0,-3420.0
-4845.0,-665.0,-3351.0,-3138.0,-3177.0,-3230.0,869.0,-3436.0
-4919.0,-671.0,-3382.0,-3176.0,-3215.0,-3267.0,869.0,-3445.0
-4987.0,-675.0,-3404.0,-3210.0,-3247.0,-3301.0,868.0,-3448.0
-5032.0,-678.0,-3422.0,-3238.0,-3272.0,-3335.0,868.0,-3447.0
-5056.0,-674.0,-3445.0,-3263.0,-3295.0,-3367.0,867.0,-3448.0
-5054.0,-663.0,-3471.0,-3285.0,-3316.0,-3393.0,866.0,-3448.0
-5025.0,-655.0,-3492.0,-3302.0,-3332.0,-3408.0,866.0,-3443.0
-5025.0,-648.0,-3521.0,-3324.0,-3356.0,-3431.0,865.0,-3448.0
-5034.0,-645.0,-3557.0,-3346.0,-3381.0,-3450.0,865.0,-3454.0
-5035.0,-641.0,-3596.0,-3365.0,-3403.0,-3458.0,864.0,-3457.0
-5051.0,-638.0,-3629.0,-3386.0,-3425.0,-3472.0,864.0,-3472.0
-5084.0,-641.0,-3658.0,-3413.0,-3451.0,-3498.0,863.0,-3504.0
-5128.0,-641.0,-3680.0,-3441.0,-3475.0,-3530.0,863.0,-3540.0
-5172.0,-635.0,-3692.0,-3465.0,-3497.0,-3564.0,862.0,-3570.0
-5228.0,-632.0,-3713.0,-3499.0,-3527.0,-3606.0,862.0,-3598.0
-5267.0,-631.0,-3736.0,-3532.0,-3558.0,-3644.0,861.0,-3620.0
-5287.0,-625.0,-3753.0,-3559.0,-3583.0,-3672.0,860.0,-3633.0
-5299.0,-617.0,-3770.0,-3583.0,-3606.0,-3695.0,860.0,-3637.0
-5364.0,-615.0,-3811.0,-3626.0,-3650.0,-3737.0,859.0,-3656.0
-5463.0,-620.0,-3864.0,-3679.0,-3704.0,-3790.0,859.0,-3682.0
-5545.0,-625.0,-3911.0,-3724.0,-3750.0,-3834.0,858.0,-3698.0
-5619.0,-634.0,-3953.0,-3763.0,-3790.0,-3875.0,858.0,-3709.0
-5679.0,-641.0,-3986.0,-3799.0,-3824.0,-3913.0,857.0,-3713.0
-5744.0,-645.0,-4023.0,-3838.0,-3862.0,-3962.0,857.0,-3722.0
-5830.0,-644.0,-4085.0,-3895.0,-3919.0,-4019.0,856.0,-3742.0
-5905.0,-641.0,-4152.0,-3955.0,-3981.0,-4069.0,856.0,-3766.0
-5960.0,-636.0,-4139.0,-4006.0,-4030.0,-4117.0,855.0,-3782.0
-5982.0,-638.0,-4134.0,-4047.0,-4073.0,-4091.0,855.0,-3794.0
-6000.0,-647.0,-4125.0,-4082.0,-4110.0,-4077.0,854.0,-3804.0
-6040.0,-649.0,-4108.0,-4113.0,-4078.0,-4060.0,853.0,-3812.0
-6075.0,-651.0,-4085.0,-4084.0,-4056.0,-4039.0,853.0,-3817.0
-6073.0,-658.0,-4054.0,-4054.0,-4026.0,-4009.0,852.0,-3811.0
-6057.0,-664.0,-4017.0,-4021.0,-3990.0,-3973.0,852.0,-3794.0
-6046.0,-661.0,-3980.0,-3986.0,-3954.0,-3936.0,851.0,-3773.0
-6032.0,-657.0,-3946.0,-3954.0,-3922.0,-3903.0,851.0,-3756.0
-5992.0,-654.0,-3909.0,-3918.0,-3886.0,-3866.0,850.0,-3736.0
-5959.0,-650.0,-3877.0,-3887.0,-3854.0,-3833.0,850.0,-3719.0
-5972.0,-640.0,-3857.0,-3868.0,-3835.0,-3815.0,849.0,-3714.0
-5973.0,-637.0,-3833.0,-3846.0,-3813.0,-3793.0,849.0,-3701.0
-5998.0,-638.0,-3819.0,-3833.0,-3801.0,-3781.0,848.0,-3689.0
-6076.0,-637.0,-3817.0,-3832.0,-3802.0,-3783.0,848.0,-3693.0
-6121.0,-635.0,-3801.0,-3817.0,-3787.0,-3772.0,847.0,-3690.0
-6112.0,-637.0,-3770.0,-3787.0,-3758.0,-3746.0,846.0,-3673.0
-6098.0,-636.0,-3742.0,-3760.0,-3731.0,-3720.0,846.0,-3655.0
-6079.0,-631.0,-3715.0,-3733.0,-3704.0,-3695.0,845.0,-3638.0
-6062.0,-623.0,-3692.0,-3711.0,-3681.0,-3674.0,845.0,-3626.0
-6064.0,-610.0,-3675.0,-3695.0,-3665.0,-3661.0,844.0,-3615.0
-6040.0,-595.0,-3647.0,-3667.0,-3638.0,-3636.0,844.0,-3590.0
-5973.0,-582.0,-3602.0,-3624.0,-3595.0,-3594.0,843.0,-3551.0
-5851.0,-578.0,-3539.0,-3563.0,-3533.0,-3531.0,843.0,-3495.0
-5746.0,-578.0,-3481.0,-3504.0,-3473.0,-3471.0,842.0,-3441.0
-5676.0,-573.0,-3433.0,-3455.0,-3424.0,-3420.0,842.0,-3398.0
-5630.0,-561.0,-3386.0,-3412.0,-3378.0,-3371.0,841.0,-3365.0
-5539.0,-551.0,-3333.0,-3358.0,-3323.0,-3313.0,841.0,-3319.0
-5440.0,-534.0,-3285.0,-3310.0,-3276.0,-3263.0,840.0,-3273.0
-5354.0,-514.0,-3243.0,-3268.0,-3233.0,-3220.0,840.0,-3231.0
-5273.0,-503.0,-3206.0,-3231.0,-3197.0,-3185.0,839.0,-3196.0
-5177.0,-501.0,-3166.0,-3190.0,-3157.0,-3147.0,839.0,-3158.0
-5088.0,-505.0,-3127.0,-3150.0,-3118.0,-3111.0,838.0,-3123.0
-5027.0,-513.0,-3094.0,-3115.0,-3085.0,-3081.0,837.0,-3090.0
-4997.0,-522.0,-3069.0,-3088.0,-3060.0,-3057.0,837.0,-3063.0
-4971.0,-525.0,-3041.0,-3058.0,-3031.0,-3028.0,836.0,-3036.0
-4953.0,-526.0,-3014.0,-3029.0,-3002.0,-2998.0,836.0,-3013.0
-4941.0,-521.0,-2989.0,-3002.0,-2974.0,-2970.0,835.0,-2990.0
